WL(um)	Flux(W/m2/um)
1.15E-01	5.30655E-08
1.16E-01	6.79589E-08
1.17E-01	8.78584E-08
1.18E-01	1.19648E-07
1.19E-01	1.43928E-07
1.20E-01	1.61449E-07
1.21E-01	1.72713E-07
1.22E-01	4.69329E-08
1.23E-01	2.50309E-07
1.24E-01	4.48053E-07
1.25E-01	5.78213E-07
1.26E-01	6.95859E-07
1.27E-01	8.37283E-07
1.28E-01	1.0125E-06
1.29E-01	1.11888E-06
1.30E-01	1.33915E-06
1.31E-01	1.55191E-06
1.32E-01	1.93989E-06
1.33E-01	2.04002E-06
1.34E-01	2.2653E-06
1.35E-01	2.80346E-06
1.36E-01	3.50432E-06
1.37E-01	3.76715E-06
1.38E-01	4.1301E-06
1.39E-01	4.49304E-06
1.40E-01	5.08127E-06
1.41E-01	6.62067E-06
1.42E-01	7.77209E-06
1.43E-01	9.24891E-06
1.44E-01	1.14391E-05
1.44E-01	1.52688E-05
1.45E-01	1.35167E-05
1.46E-01	1.62701E-05
1.47E-01	2.1902E-05
1.48E-01	2.5156E-05
1.49E-01	2.72837E-05
1.50E-01	3.74212E-05
1.51E-01	4.73084E-05
1.51E-01	3.39168E-05
1.52E-01	4.54311E-05
1.53E-01	0.000143928
1.54E-01	0.000261573
1.55E-01	0.000201499
1.56E-01	0.000371709
1.57E-01	0.000350432
1.58E-01	0.000914879
1.59E-01	0.001101359
1.60E-01	0.001301606
1.61E-01	0.001376699
1.62E-01	0.001501853
1.63E-01	0.001677069
1.64E-01	0.002240264
1.65E-01	0.003304077
1.66E-01	0.002315357
1.67E-01	0.004017457
1.67E-01	0.002703336
1.68E-01	0.009824622
1.69E-01	0.011301444
1.70E-01	0.014267604
1.71E-01	0.015393994
1.72E-01	0.014768222
1.73E-01	0.02065048
1.74E-01	0.024405112
1.75E-01	0.034417466
1.76E-01	0.043804048
1.77E-01	0.042802812
1.78E-01	0.044930438
1.79E-01	0.064829991
1.80E-01	0.07046194
1.81E-01	0.085605625
1.82E-01	0.078471823
1.83E-01	0.104629097
1.84E-01	0.107757958
1.85E-01	0.086857169
1.86E-01	0.115392377
1.87E-01	0.141424497
1.88E-01	0.151436851
1.89E-01	0.166455382
1.90E-01	0.222774872
1.91E-01	0.215265606
1.92E-01	0.256566566
1.93E-01	0.255315021
1.94E-01	0.16895847
1.95E-01	0.324149954
1.96E-01	0.365450913
1.97E-01	0.456813641
1.98E-01	0.469329083
1.98E-01	0.513133131
2.00E-01	0.518139308
2.01E-01	0.51563622
2.02E-01	0.589477329
2.03E-01	0.470580628
2.04E-01	0.655809173
2.05E-01	0.749674989
2.06E-01	0.814755289
2.07E-01	0.817258377
2.07E-01	0.854804704
2.08E-01	1.714615585
2.09E-01	2.077563409
2.10E-01	2.02750164
2.11E-01	2.065047967
2.12E-01	2.553150214
2.13E-01	2.415480349
2.14E-01	2.778428174
2.15E-01	3.09131423
2.16E-01	2.778428174
2.17E-01	2.628242867
2.18E-01	2.653273752
2.19E-01	3.304076747
2.20E-01	3.579416476
2.21E-01	3.779663552
2.22E-01	3.304076747
2.23E-01	4.042487839
2.24E-01	5.957350499
2.25E-01	6.01992771
2.26E-01	4.89353791
2.27E-01	3.754632667
2.28E-01	4.167642261
2.29E-01	6.332813766
2.30E-01	5.594402674
2.31E-01	5.68201077
2.32E-01	6.608153495
2.33E-01	6.595638052
2.34E-01	7.671966084
2.35E-01	5.306547503
2.36E-01	7.346564586
2.37E-01	6.057474037
2.38E-01	7.03367853
2.39E-01	5.957350499
2.40E-01	6.883493224
2.41E-01	8.122522004
2.42E-01	6.883493224
2.43E-01	10.63812589
2.44E-01	11.6769076
2.45E-01	14.6430674
2.46E-01	16.01976605
2.47E-01	11.53923773
2.48E-01	10.68818766
2.49E-01	4.680775392
2.50E-01	6.845946897
2.51E-01	11.38905242
2.51E-01	6.495514515
2.52E-01	4.618198181
2.53E-01	5.206423966
2.54E-01	11.87715467
2.55E-01	11.6769076
2.56E-01	30.41252461
2.57E-01	20.90078852
2.58E-01	32.66530421
2.59E-01	30.16221576
2.60E-01	29.66159807
2.61E-01	28.03459058
2.62E-01	24.78057561
2.63E-01	34.66777496
2.64E-01	72.83987375
2.65E-01	87.23263231
2.66E-01	163.9522931
2.67E-01	85.98108808
2.68E-01	93.11489015
2.69E-01	126.4059665
2.70E-01	66.45699821
2.71E-01	99.99838338
2.72E-01	61.82628459
2.73E-01	33.41623074
2.74E-01	52.18939408
2.75E-01	38.7978709
2.76E-01	55.56856348
2.77E-01	78.34666833
2.78E-01	79.84852139
2.79E-01	46.6825995
2.80E-01	23.40387696
2.81E-01	28.41005385
2.82E-01	67.45823359
2.83E-01	81.47552888
2.84E-01	58.19680635
2.85E-01	33.66653958
2.86E-01	17.39646469
2.87E-01	45.68136412
2.88E-01	87.10747788
2.89E-01	105.505178
2.90E-01	176.4677354
2.91E-01	329.1561305
2.93E-01	306.6283345
2.95E-01	292.8613481
2.97E-01	311.6345114
2.99E-01	337.9169401
3.01E-01	331.659219
3.03E-01	389.2302532
3.05E-01	392.9848859
3.07E-01	395.4879743
3.09E-01	289.1067154
3.11E-01	415.5126819
3.13E-01	351.6839265
3.15E-01	356.6901034
3.17E-01	414.2611376
3.19E-01	347.9292938
3.21E-01	375.4632667
3.23E-01	321.6468652
3.25E-01	504.3723217
3.27E-01	610.7535806
3.29E-01	589.4773288
3.31E-01	510.6300428
3.33E-01	529.4032061
3.35E-01	504.3723217
3.37E-01	315.3891441
3.39E-01	390.4817974
3.41E-01	402.9972396
3.43E-01	459.3167296
3.45E-01	536.9124714
3.47E-01	578.2134308
3.49E-01	665.8215264
3.51E-01	698.3616761
3.53E-01	612.0051248
3.55E-01	684.5946897
3.57E-01	498.1146005
3.59E-01	514.3846754
3.61E-01	662.0668937
3.63E-01	648.2999072
3.64E-01	642.0421861
3.65E-01	692.103955
3.67E-01	775.9574179
3.69E-01	640.7906419
3.71E-01	645.7968188
3.73E-01	337.9169401
3.75E-01	402.9972396
3.77E-01	627.0236555
3.79E-01	653.3060841
3.81E-01	561.9433559
3.83E-01	249.0573003
3.85E-01	392.9848859
3.87E-01	379.2178994
3.89E-01	548.1763694
3.91E-01	729.6502817
3.93E-01	337.9169401
3.95E-01	649.5514515
3.97E-01	451.8074643
3.99E-01	1028.769351
4.01E-01	1107.616637
4.03E-01	1082.585752
4.05E-01	1012.499276
4.07E-01	927.3942689
4.09E-01	1239.02878
4.11E-01	1195.224732
4.13E-01	1133.899066
4.15E-01	1083.837297
4.17E-01	1150.16914
4.19E-01	1058.806412
4.21E-01	1083.837297
4.23E-01	993.7261126
4.25E-01	1052.548691
4.27E-01	958.6828744
4.29E-01	893.6025748
4.31E-01	758.4357988
4.33E-01	1196.476277
4.35E-01	1198.979365
4.37E-01	1289.090549
4.39E-01	1111.37127
4.41E-01	1200.230909
4.43E-01	1351.66776
4.45E-01	1339.152318
4.47E-01	1451.791298
4.49E-01	1489.337625
4.51E-01	1702.100143
4.53E-01	1489.337625
4.55E-01	1576.94572
4.57E-01	1689.5847
4.59E-01	1589.461163
4.61E-01	1627.007489
4.63E-01	1601.976605
4.65E-01	1614.492047
4.67E-01	1689.5847
4.69E-01	1639.522931
4.71E-01	1601.976605
4.73E-01	1664.553816
4.75E-01	1689.5847
4.77E-01	1689.5847
4.79E-01	1702.100143
4.81E-01	1689.5847
4.83E-01	1727.131027
4.85E-01	1639.522931
4.87E-01	1464.30674
4.89E-01	1601.976605
4.91E-01	1627.007489
4.93E-01	1564.430278
4.95E-01	1639.522931
4.97E-01	1652.038374
4.99E-01	1526.883951
5.01E-01	1439.275856
5.03E-01	1539.399394
5.05E-01	1514.368509
5.07E-01	1589.461163
5.09E-01	1514.368509
5.11E-01	1526.883951
5.13E-01	1489.337625
5.15E-01	1414.244971
5.17E-01	1185.212379
5.19E-01	1239.02878
5.21E-01	1439.275856
5.23E-01	1539.399394
5.25E-01	1652.038374
5.27E-01	1389.214087
5.29E-01	1627.007489
5.31E-01	1739.646469
5.33E-01	1501.853067
5.35E-01	1664.553816
5.37E-01	1627.007489
5.39E-01	1601.976605
5.41E-01	1551.914836
5.43E-01	1589.461163
5.45E-01	1639.522931
5.47E-01	1639.522931
5.49E-01	1664.553816
5.51E-01	1627.007489
5.53E-01	1664.553816
5.55E-01	1689.5847
5.57E-01	1627.007489
5.59E-01	1589.461163
5.61E-01	1652.038374
5.63E-01	1664.553816
5.65E-01	1677.069258
5.67E-01	1639.522931
5.69E-01	1664.553816
5.71E-01	1614.492047
5.73E-01	1727.131027
5.75E-01	1677.069258
5.77E-01	1689.5847
5.79E-01	1627.007489
5.81E-01	1689.5847
5.83E-01	1714.615585
5.85E-01	1677.069258
5.87E-01	1677.069258
5.89E-01	1501.853067
5.91E-01	1652.038374
5.93E-01	1652.038374
5.95E-01	1664.553816
5.97E-01	1664.553816
5.99E-01	1652.038374
6.01E-01	1614.492047
6.03E-01	1639.522931
6.05E-01	1664.553816
6.07E-01	1652.038374
6.09E-01	1601.976605
6.11E-01	1601.976605
6.13E-01	1514.368509
6.15E-01	1564.430278
6.17E-01	1489.337625
6.19E-01	1589.461163
6.21E-01	1589.461163
6.23E-01	1539.399394
6.25E-01	1501.853067
6.27E-01	1564.430278
6.29E-01	1576.94572
6.31E-01	1526.883951
6.33E-01	1539.399394
6.35E-01	1539.399394
6.37E-01	1539.399394
6.39E-01	1551.914836
6.41E-01	1501.853067
6.43E-01	1526.883951
6.45E-01	1501.853067
6.47E-01	1489.337625
6.49E-01	1464.30674
6.51E-01	1514.368509
6.53E-01	1514.368509
6.55E-01	1464.30674
6.57E-01	1351.66776
6.59E-01	1476.822183
6.61E-01	1501.853067
6.63E-01	1489.337625
6.65E-01	1489.337625
6.67E-01	1464.30674
6.69E-01	1489.337625
6.71E-01	1451.791298
6.73E-01	1476.822183
6.75E-01	1464.30674
6.77E-01	1464.30674
6.79E-01	1451.791298
6.81E-01	1439.275856
6.83E-01	1451.791298
6.85E-01	1414.244971
6.87E-01	1426.760414
6.89E-01	1439.275856
6.91E-01	1426.760414
6.93E-01	1414.244971
6.95E-01	1401.729529
6.97E-01	1401.729529
6.99E-01	1401.729529
7.01E-01	1364.183203
7.03E-01	1376.698645
7.05E-01	1389.214087
7.07E-01	1364.183203
7.09E-01	1364.183203
7.11E-01	1364.183203
7.13E-01	1339.152318
7.15E-01	1326.636876
7.17E-01	1339.152318
7.19E-01	1289.090549
7.21E-01	1314.121434
7.23E-01	1326.636876
7.25E-01	1326.636876
7.27E-01	1326.636876
7.29E-01	1289.090549
7.31E-01	1301.605991
7.33E-01	1301.605991
7.35E-01	1301.605991
7.37E-01	1301.605991
7.39E-01	1276.575107
7.41E-01	1242.783413
7.43E-01	1276.575107
7.45E-01	1264.059665
7.47E-01	1276.575107
7.49E-01	1264.059665
7.51E-01	1264.059665
7.53E-01	1264.059665
7.55E-01	1264.059665
7.57E-01	1251.544222
7.59E-01	1249.041134
7.61E-01	1244.034957
7.63E-01	1245.286501
7.65E-01	1245.286501
7.67E-01	1200.230909
7.69E-01	1236.525692
7.71E-01	1212.746352
7.73E-01	1217.752528
7.75E-01	1198.979365
7.77E-01	1224.01025
7.79E-01	1216.500984
7.81E-01	1208.991719
7.83E-01	1192.721644
7.85E-01	1188.967011
7.87E-01	1200.230909
7.89E-01	1190.218556
7.91E-01	1168.942304
7.93E-01	1150.16914
7.95E-01	1142.659875
7.97E-01	1167.69076
7.99E-01	1165.187671
8.01E-01	1147.666052
8.03E-01	1148.917596
8.05E-01	1135.15061
8.07E-01	1141.408331
8.09E-01	1117.628991
8.11E-01	1126.3898
8.13E-01	1131.395977
8.15E-01	1123.886712
8.17E-01	1121.383623
8.19E-01	1078.83112
8.21E-01	1088.843474
8.23E-01	1086.340385
8.25E-01	1096.352739
8.27E-01	1105.113548
8.29E-01	1096.352739
8.31E-01	1073.824943
8.33E-01	1061.309501
8.35E-01	1068.818766
8.37E-01	1072.573399
8.39E-01	1037.53016
8.41E-01	1067.567222
8.43E-01	1041.284793
8.45E-01	1056.303324
8.47E-01	1042.536337
8.49E-01	1048.794058
8.51E-01	1002.486922
8.53E-01	1043.787882
8.55E-01	976.2044935
8.57E-01	1045.039426
8.59E-01	1023.763174
8.61E-01	1020.008541
8.63E-01	1027.517807
8.65E-01	1028.769351
8.67E-01	947.4189764
8.69E-01	983.7137589
8.71E-01	1002.486922
8.73E-01	1003.738466
8.75E-01	991.2230242
8.77E-01	1001.235378
8.79E-01	991.2230242
8.81E-01	956.179786
8.83E-01	976.2044935
8.85E-01	983.7137589
8.87E-01	962.4375071
8.89E-01	982.4622146
8.91E-01	984.9653031
8.93E-01	963.6890513
8.95E-01	958.6828744
8.97E-01	961.1859629
8.99E-01	962.4375071
9.01E-01	921.1365477
9.03E-01	949.9220649
9.05E-01	963.6890513
9.07E-01	949.9220649
9.09E-01	921.1365477
9.11E-01	927.3942689
9.13E-01	939.9097111
9.15E-01	934.9035342
9.17E-01	932.4004457
9.19E-01	937.4066226
9.21E-01	916.1303709
9.23E-01	914.8788266
9.25E-01	906.1180171
9.27E-01	912.3757382
9.29E-01	908.6211055
9.31E-01	913.6272824
9.33E-01	906.1180171
9.35E-01	902.3633844
9.37E-01	892.3510306
9.39E-01	897.3572075
9.41E-01	866.068602
9.43E-01	889.8479422
9.45E-01	871.0747788
9.47E-01	884.8417653
9.49E-01	886.0933095
9.51E-01	877.3325
9.53E-01	873.5778673
9.55E-01	854.804704
9.57E-01	858.5593366
9.59E-01	868.5716904
9.61E-01	857.3077924
9.63E-01	851.0500713
9.65E-01	838.5346291
9.67E-01	839.7861733
9.69E-01	848.5469828
9.71E-01	839.7861733
9.73E-01	836.0315406
9.75E-01	829.7738195
9.77E-01	828.5222753
9.79E-01	818.5099215
9.81E-01	828.5222753
9.83E-01	823.5160984
9.85E-01	824.7676426
9.87E-01	816.0068331
9.89E-01	813.5037446
9.91E-01	812.2522004
9.93E-01	813.5037446
9.95E-01	811.0006562
9.97E-01	808.4975677
9.99E-01	803.4913908
1.00E+00	797.2336697
1.01E+00	785.9697717
1.01E+00	783.4666833
1.02E+00	770.951241
1.02E+00	765.9450642
1.03E+00	763.4419757
1.03E+00	749.6749893
1.04E+00	742.1657239
1.04E+00	742.1657239
1.05E+00	730.9018259
1.05E+00	729.6502817
1.06E+00	718.3863837
1.06E+00	710.8771184
1.07E+00	698.3616761
1.07E+00	697.1101319
1.08E+00	687.0977781
1.08E+00	674.5823359
1.09E+00	672.0792475
1.09E+00	670.8277032
1.10E+00	660.8153495
1.10E+00	663.3184379
1.11E+00	660.8153495
1.11E+00	653.3060841
1.12E+00	645.7968188
1.12E+00	643.2937304
1.13E+00	628.2751997
1.13E+00	628.2751997
1.14E+00	620.7659343
1.14E+00	610.7535806
1.15E+00	617.0113017
1.15E+00	613.256669
1.16E+00	603.2443152
1.16E+00	593.2319615
1.17E+00	591.9804172
1.17E+00	593.2319615
1.18E+00	580.7165192
1.18E+00	573.2072539
1.19E+00	566.9495328
1.19E+00	574.4587981
1.20E+00	550.6794579
1.20E+00	559.4402674
1.21E+00	551.9310021
1.21E+00	551.9310021
1.22E+00	553.1825463
1.22E+00	548.1763694
1.23E+00	540.6671041
1.23E+00	538.1640157
1.24E+00	534.409383
1.24E+00	528.1516619
1.25E+00	526.9001177
1.25E+00	520.6423966
1.26E+00	518.1393081
1.26E+00	514.3846754
1.27E+00	506.8754101
1.27E+00	506.8754101
1.28E+00	504.3723217
1.28E+00	483.0960699
1.29E+00	493.1084237
1.29E+00	488.1022468
1.30E+00	489.353791
1.30E+00	481.8445257
1.31E+00	481.8445257
1.31E+00	470.5806277
1.32E+00	469.3290834
1.32E+00	470.5806277
1.33E+00	461.8198181
1.33E+00	461.8198181
1.34E+00	458.0651854
1.34E+00	459.3167296
1.35E+00	454.3105528
1.35E+00	451.8074643
1.36E+00	443.0466548
1.36E+00	441.7951105
1.37E+00	440.5435663
1.37E+00	439.2920221
1.38E+00	434.2858452
1.38E+00	433.034301
1.39E+00	429.2796683
1.39E+00	428.0281241
1.40E+00	425.5250356
1.40E+00	418.0157703
1.41E+00	419.2673145
1.41E+00	413.0095934
1.42E+00	415.5126819
1.42E+00	405.5003281
1.43E+00	397.9910627
1.43E+00	404.2487839
1.44E+00	404.2487839
1.44E+00	390.4817974
1.45E+00	397.9910627
1.45E+00	389.2302532
1.46E+00	390.4817974
1.46E+00	390.4817974
1.47E+00	387.978709
1.47E+00	380.4694436
1.48E+00	379.2178994
1.48E+00	377.9663552
1.49E+00	366.7024572
1.49E+00	376.714811
1.50E+00	370.4570899
1.50E+00	351.6839265
1.51E+00	356.6901034
1.51E+00	364.1993687
1.52E+00	362.9478245
1.52E+00	357.9416476
1.53E+00	359.1931919
1.53E+00	355.4385592
1.54E+00	354.187015
1.54E+00	354.187015
1.55E+00	350.4323823
1.55E+00	344.1746612
1.56E+00	341.6715727
1.56E+00	344.1746612
1.57E+00	334.1623074
1.57E+00	336.6653958
1.58E+00	321.6468652
1.58E+00	327.9045863
1.59E+00	317.8922325
1.59E+00	322.8984094
1.60E+00	324.1499536
1.61E+00	320.395321
1.62E+00	314.1375998
1.63E+00	311.6345114
1.64E+00	305.3767903
1.65E+00	299.1190692
1.66E+00	296.6159807
1.67E+00	291.6098038
1.68E+00	282.8489943
1.69E+00	276.5912732
1.70E+00	276.5912732
1.71E+00	266.5789194
1.72E+00	262.8242867
1.73E+00	256.5665656
1.74E+00	247.8057561
1.75E+00	246.5542118
1.76E+00	242.7995792
1.77E+00	239.0449465
1.78E+00	232.7872254
1.79E+00	230.2841369
1.80E+00	225.27796
1.81E+00	220.2717832
1.82E+00	214.014062
1.83E+00	211.5109736
1.84E+00	207.7563409
1.85E+00	201.4986198
1.86E+00	200.2470756
1.87E+00	193.9893545
1.88E+00	185.2285449
1.89E+00	187.7316334
1.90E+00	180.222368
1.91E+00	181.4739123
1.92E+00	177.7192796
1.93E+00	175.2161911
1.94E+00	170.2100143
1.95E+00	163.9522931
1.96E+00	165.2038374
1.97E+00	162.7007489
1.98E+00	157.694572
1.99E+00	156.4430278
2.00E+00	153.9399394
2.01E+00	152.6883951
2.02E+00	150.1853067
2.03E+00	146.430674
2.04E+00	142.6760414
2.05E+00	142.6760414
2.06E+00	138.9214087
2.07E+00	136.4183203
2.08E+00	133.9152318
2.09E+00	132.6636876
2.10E+00	128.9090549
2.11E+00	127.6575107
2.12E+00	125.1544222
2.13E+00	123.2771059
2.14E+00	121.6500984
2.15E+00	119.6476277
2.16E+00	117.6451569
2.17E+00	113.1395977
2.18E+00	112.8892889
2.19E+00	111.2622814
2.20E+00	110.0107372
2.21E+00	107.007031
2.22E+00	106.5064133
2.23E+00	104.2536337
2.24E+00	102.6266262
2.25E+00	100.9996188
2.26E+00	99.49776569
2.27E+00	97.49529493
2.28E+00	96.61921398
2.29E+00	94.36643437
2.30E+00	90.11118402
2.31E+00	90.48664729
2.32E+00	89.23510306
2.33E+00	84.3540806
2.34E+00	84.97985271
2.35E+00	84.97985271
2.36E+00	79.72336697
2.37E+00	81.35037446
2.38E+00	80.59944793
2.39E+00	76.09388873
2.40E+00	77.34543295
2.41E+00	76.84481526
2.42E+00	73.21533702
2.43E+00	73.59080028
2.44E+00	72.96502817
2.45E+00	70.83740299
2.46E+00	69.46070435
2.47E+00	70.08647646
2.48E+00	68.20916013
2.49E+00	66.20668937
2.50E+00	66.70730706
2.51E+00	66.33184379
2.52E+00	64.07906419
2.53E+00	64.20421861
2.54E+00	63.32813766
2.55E+00	62.07659343
2.56E+00	61.20051248
2.57E+00	60.44958595
2.58E+00	60.1992771
2.59E+00	58.19680635
2.60E+00	58.19680635
2.61E+00	57.69618866
2.62E+00	56.69495328
2.63E+00	54.81763694
2.64E+00	55.06794579
2.65E+00	54.19186483
2.66E+00	53.56609272
2.67E+00	52.43970292
2.68E+00	52.56485734
2.69E+00	51.93908523
2.70E+00	51.06300428
2.71E+00	50.43723217
2.72E+00	49.81146005
2.73E+00	49.18568794
2.74E+00	48.55991583
2.75E+00	47.93414372
2.76E+00	47.30837161
2.77E+00	46.55744508
2.78E+00	45.93167296
2.79E+00	45.43105528
2.80E+00	44.93043759
2.81E+00	44.30466548
2.82E+00	43.80404779
2.83E+00	43.17827568
2.84E+00	42.67765799
2.85E+00	42.05188588
2.86E+00	41.55126819
2.87E+00	40.92549608
2.88E+00	40.42487839
2.89E+00	39.9242607
2.90E+00	39.42364301
2.91E+00	38.92302532
2.92E+00	38.54756205
2.93E+00	37.79663552
2.94E+00	37.54632667
2.95E+00	36.92055456
2.96E+00	36.5450913
2.97E+00	36.16962803
2.98E+00	35.66901034
2.99E+00	35.29354707
3.00E+00	34.79292938
3.01E+00	34.2923117
3.02E+00	33.91684843
3.03E+00	33.54138516
3.04E+00	32.91561305
3.05E+00	32.66530421
3.06E+00	32.28984094
3.07E+00	31.78922325
3.08E+00	31.53891441
3.09E+00	31.03829672
3.10E+00	30.66283345
3.11E+00	30.41252461
3.12E+00	29.78675249
3.13E+00	29.66159807
3.14E+00	29.28613481
3.15E+00	29.03582596
3.16E+00	28.53520827
3.17E+00	28.28489943
3.18E+00	27.90943616
3.19E+00	27.65912732
3.20E+00	27.28366405
3.21E+00	26.78304636
3.23E+00	26.15727425
3.25E+00	25.53150214
3.27E+00	24.90573003
3.29E+00	24.27995792
3.31E+00	23.77934023
3.33E+00	23.27872254
3.35E+00	22.77810485
3.37E+00	22.27748716
3.39E+00	21.65171505
3.41E+00	21.15109736
3.43E+00	20.77563409
3.45E+00	20.40017083
3.47E+00	19.89955314
3.49E+00	19.52408987
3.51E+00	19.1486266
3.53E+00	18.64800891
3.55E+00	18.27254565
3.57E+00	17.89708238
3.59E+00	17.52161911
3.61E+00	17.14615585
3.63E+00	16.77069258
3.65E+00	16.39522931
3.67E+00	16.01976605
3.69E+00	15.64430278
3.71E+00	15.26883951
3.73E+00	15.01853067
3.75E+00	14.6430674
3.77E+00	14.51791298
3.79E+00	14.14244971
3.81E+00	13.89214087
3.83E+00	13.64183203
3.85E+00	13.39152318
3.87E+00	13.14121434
3.89E+00	12.89090549
3.91E+00	12.64059665
3.93E+00	12.3902878
3.95E+00	12.10243263
3.97E+00	11.90218556
3.99E+00	11.61433038
4.01E+00	11.42659875
4.03E+00	11.23886712
4.05E+00	10.96352739
4.07E+00	10.81334208
4.09E+00	10.61309501
4.11E+00	10.42536337
4.13E+00	10.25014718
4.15E+00	10.03738466
4.17E+00	9.862168473
4.19E+00	9.661921398
4.21E+00	9.44915888
4.23E+00	9.349035342
4.25E+00	9.148788266
4.27E+00	9.011118402
4.29E+00	8.598108808
4.31E+00	8.260191868
4.33E+00	8.222645542
4.35E+00	7.834666833
4.37E+00	7.646935199
4.39E+00	7.546811662
4.41E+00	7.171348395
4.43E+00	7.108771184
4.45E+00	7.008647646
4.47E+00	6.69576159
4.49E+00	6.720792475
4.51E+00	6.558091726
4.53E+00	6.332813766
4.55E+00	6.332813766
4.57E+00	6.270236555
4.59E+00	6.01992771
4.61E+00	6.032443152
4.63E+00	5.932319615
4.65E+00	5.869742403
4.67E+00	5.807165192
4.69E+00	5.719557097
4.71E+00	5.619433559
4.73E+00	5.606918117
4.75E+00	5.481763694
4.77E+00	5.406671041
4.79E+00	5.331578388
4.81E+00	5.206423966
4.83E+00	5.218939408
4.85E+00	5.11881587
4.87E+00	5.018692332
4.89E+00	4.956115121
4.91E+00	4.881022468
4.93E+00	4.805929814
4.95E+00	4.718321719
4.97E+00	4.66825995
4.99E+00	4.593167296
5.01E+00	4.55562097
5.03E+00	4.480528316
5.05E+00	4.380404779
5.07E+00	4.342858452
5.09E+00	4.292796683
5.11E+00	4.205188588
5.13E+00	4.167642261
5.15E+00	4.092549608
5.17E+00	4.080034165
5.19E+00	3.99242607
5.21E+00	3.942364301
5.23E+00	3.87978709
5.25E+00	3.842240763
5.27E+00	3.804694436
5.29E+00	3.717086341
5.31E+00	3.679540014
5.33E+00	3.629478245
5.35E+00	3.591931919
5.37E+00	3.54187015
5.39E+00	3.504323823
5.41E+00	3.454262054
5.43E+00	3.391684843
5.45E+00	3.366653958
5.47E+00	3.31659219
5.49E+00	3.266530421
5.51E+00	3.228984094
5.53E+00	3.216468652
5.55E+00	3.141375998
5.57E+00	3.128860556
5.59E+00	3.066283345
5.61E+00	3.041252461
5.63E+00	2.991190692
5.65E+00	2.966159807
5.67E+00	2.928613481
5.69E+00	2.878551712
5.71E+00	2.853520827
5.73E+00	2.815974501
5.75E+00	2.778428174
5.77E+00	2.740881847
5.79E+00	2.715850963
5.81E+00	2.678304636
5.83E+00	2.640758309
5.85E+00	2.615727425
5.87E+00	2.578181098
5.89E+00	2.540634772
5.91E+00	2.515603887
5.93E+00	2.490573003
5.95E+00	2.453026676
5.97E+00	2.427995792
