CH2CCH2
Air:  
Temp:           100K            300K            1000K 
Angstroms       XS
3.500000E+02    2.166230E-17    2.166230E-17    2.166230E-17
3.600000E+02    2.302970E-17    2.302970E-17    2.302970E-17
3.700000E+02    2.421810E-17    2.421810E-17    2.421810E-17
3.800000E+02    2.548860E-17    2.548860E-17    2.548860E-17
3.900000E+02    2.670170E-17    2.670170E-17    2.670170E-17
4.000000E+02    2.851050E-17    2.851050E-17    2.851050E-17
4.100000E+02    2.991960E-17    2.991960E-17    2.991960E-17
4.200000E+02    3.216460E-17    3.216460E-17    3.216460E-17
4.300000E+02    3.393320E-17    3.393320E-17    3.393320E-17
4.400000E+02    3.563940E-17    3.563940E-17    3.563940E-17
4.500000E+02    3.734560E-17    3.734560E-17    3.734560E-17
4.600000E+02    3.856050E-17    3.856050E-17    3.856050E-17
4.700000E+02    3.989970E-17    3.989970E-17    3.989970E-17
4.800000E+02    4.150100E-17    4.150100E-17    4.150100E-17
4.900000E+02    4.283640E-17    4.283640E-17    4.283640E-17
5.000000E+02    4.478430E-17    4.478430E-17    4.478430E-17
5.100000E+02    4.686940E-17    4.686940E-17    4.686940E-17
5.200000E+02    4.918030E-17    4.918030E-17    4.918030E-17
5.300000E+02    5.163450E-17    5.163450E-17    5.163450E-17
5.400000E+02    5.423500E-17    5.423500E-17    5.423500E-17
5.500000E+02    5.698100E-17    5.698100E-17    5.698100E-17
5.600000E+02    5.978230E-17    5.978230E-17    5.978230E-17
5.700000E+02    6.256310E-17    6.256310E-17    6.256310E-17
5.800000E+02    6.583210E-17    6.583210E-17    6.583210E-17
5.900000E+02    6.807500E-17    6.807500E-17    6.807500E-17
6.000000E+02    7.007460E-17    7.007460E-17    7.007460E-17
6.100000E+02    7.106300E-17    7.106300E-17    7.106300E-17
6.200000E+02    7.177060E-17    7.177060E-17    7.177060E-17
6.300000E+02    7.189470E-17    7.189470E-17    7.189470E-17
6.400000E+02    7.240870E-17    7.240870E-17    7.240870E-17
6.500000E+02    7.195820E-17    7.195820E-17    7.195820E-17
6.600000E+02    7.117450E-17    7.117450E-17    7.117450E-17
6.700000E+02    7.026330E-17    7.026330E-17    7.026330E-17
6.800000E+02    6.859080E-17    6.859080E-17    6.859080E-17
6.900000E+02    6.708640E-17    6.708640E-17    6.708640E-17
7.000000E+02    6.533930E-17    6.533930E-17    6.533930E-17
7.100000E+02    6.403270E-17    6.403270E-17    6.403270E-17
7.200000E+02    6.295620E-17    6.295620E-17    6.295620E-17
7.300000E+02    6.159940E-17    6.159940E-17    6.159940E-17
7.400000E+02    6.067550E-17    6.067550E-17    6.067550E-17
7.500000E+02    6.004140E-17    6.004140E-17    6.004140E-17
7.600000E+02    6.008100E-17    6.008100E-17    6.008100E-17
7.700000E+02    5.948850E-17    5.948850E-17    5.948850E-17
7.800000E+02    5.849010E-17    5.849010E-17    5.849010E-17
7.900000E+02    5.789900E-17    5.789900E-17    5.789900E-17
8.000000E+02    5.745830E-17    5.745830E-17    5.745830E-17
8.100000E+02    5.736380E-17    5.736380E-17    5.736380E-17
8.200000E+02    5.937050E-17    5.937050E-17    5.937050E-17
8.300000E+02    6.136210E-17    6.136210E-17    6.136210E-17
8.400000E+02    6.240730E-17    6.240730E-17    6.240730E-17
8.500000E+02    6.345680E-17    6.345680E-17    6.345680E-17
8.600000E+02    6.361160E-17    6.361160E-17    6.361160E-17
8.700000E+02    6.452110E-17    6.452110E-17    6.452110E-17
8.800000E+02    6.313430E-17    6.313430E-17    6.313430E-17
8.900000E+02    6.129590E-17    6.129590E-17    6.129590E-17
9.000000E+02    5.734280E-17    5.734280E-17    5.734280E-17
9.100000E+02    5.444710E-17    5.444710E-17    5.444710E-17
9.200000E+02    5.127360E-17    5.127360E-17    5.127360E-17
9.300000E+02    4.912460E-17    4.912460E-17    4.912460E-17
9.400000E+02    4.509440E-17    4.509440E-17    4.509440E-17
9.500000E+02    4.264310E-17    4.264310E-17    4.264310E-17
9.600000E+02    4.022150E-17    4.022150E-17    4.022150E-17
9.700000E+02    3.869920E-17    3.869920E-17    3.869920E-17
9.800000E+02    3.857630E-17    3.857630E-17    3.857630E-17
9.900000E+02    3.877020E-17    3.877020E-17    3.877020E-17
1.000000E+03    4.018570E-17    4.018570E-17    4.018570E-17
1.010000E+03    4.154380E-17    4.154380E-17    4.154380E-17
1.020000E+03    4.340730E-17    4.340730E-17    4.340730E-17
1.030000E+03    4.544580E-17    4.544580E-17    4.544580E-17
1.040000E+03    4.861040E-17    4.861040E-17    4.861040E-17
1.050000E+03    5.222570E-17    5.222570E-17    5.222570E-17
1.060000E+03    5.470930E-17    5.470930E-17    5.470930E-17
1.070000E+03    5.668250E-17    5.668250E-17    5.668250E-17
1.080000E+03    5.778010E-17    5.778010E-17    5.778010E-17
1.090000E+03    5.734940E-17    5.734940E-17    5.734940E-17
1.100000E+03    5.495760E-17    5.495760E-17    5.495760E-17
1.110000E+03    5.159140E-17    5.159140E-17    5.159140E-17
1.120000E+03    4.687140E-17    4.687140E-17    4.687140E-17
1.130000E+03    4.292120E-17    4.292120E-17    4.292120E-17
1.140000E+03    3.943710E-17    3.943710E-17    3.943710E-17
1.150000E+03    3.699940E-17    3.699940E-17    3.699940E-17
1.160000E+03    3.544150E-17    3.544150E-17    3.544150E-17
1.170000E+03    3.408100E-17    3.408100E-17    3.408100E-17
1.180000E+03    3.295720E-17    3.295720E-17    3.295720E-17
1.190000E+03    3.266470E-17    3.266470E-17    3.310170E-17
1.200000E+03    3.261240E-17    3.261240E-17    3.326570E-17
1.210000E+03    3.118100E-17    3.118100E-17    3.228990E-17
1.220000E+03    3.093620E-17    3.093620E-17    3.217390E-17
1.230000E+03    3.068200E-17    3.068200E-17    3.215320E-17
1.240000E+03    3.056880E-17    3.056880E-17    3.157280E-17
1.250000E+03    3.002480E-17    3.002480E-17    3.095960E-17
1.260000E+03    2.998710E-17    2.998710E-17    3.086620E-17
1.270000E+03    3.072810E-17    3.072810E-17    3.175500E-17
1.280000E+03    3.046680E-17    3.046680E-17    3.130770E-17
1.290000E+03    3.054830E-17    2.985640E-17    3.082390E-17
1.300000E+03    3.447950E-17    3.120620E-17    3.187850E-17
1.310000E+03    3.497420E-17    3.286910E-17    3.370880E-17
1.320000E+03    3.511370E-17    3.379820E-17    3.476150E-17
1.330000E+03    3.447250E-17    3.338710E-17    3.414420E-17
1.340000E+03    4.224940E-17    4.041030E-17    4.108070E-17
1.350000E+03    4.355310E-17    4.207990E-17    4.276380E-17
1.360000E+03    4.498260E-17    4.433050E-17    4.440000E-17
1.370000E+03    4.451500E-17    4.376560E-17    4.377460E-17
1.380000E+03    5.061300E-17    4.936350E-17    4.923220E-17
1.390000E+03    4.995900E-17    4.945620E-17    4.853090E-17
1.400000E+03    4.476820E-17    4.471150E-17    4.479920E-17
1.410000E+03    5.513690E-17    5.444560E-17    5.391120E-17
1.420000E+03    6.298970E-17    6.267420E-17    6.128470E-17
1.430000E+03    5.057940E-17    5.058110E-17    5.050550E-17
1.440000E+03    7.548260E-17    7.599290E-17    7.289550E-17
1.450000E+03    4.327310E-17    4.453830E-17    4.571640E-17
1.460000E+03    3.309540E-17    3.269840E-17    3.310010E-17
1.470000E+03    3.661610E-17    3.600750E-17    3.542590E-17
1.480000E+03    3.418850E-17    3.491560E-17    3.435900E-17
1.490000E+03    3.839800E-17    3.890700E-17    3.841310E-17
1.500000E+03    4.225200E-17    4.263630E-17    4.149420E-17
1.510000E+03    4.378830E-17    4.374800E-17    4.203850E-17
1.520000E+03    4.125040E-17    4.224560E-17    4.173510E-17
1.530000E+03    3.541960E-17    3.577200E-17    3.518610E-17
1.540000E+03    4.678880E-17    4.705750E-17    4.536490E-17
1.550000E+03    2.129350E-17    2.431500E-17    2.548740E-17
1.560000E+03    1.344600E-17    1.524990E-17    1.647780E-17
1.570000E+03    1.625830E-17    1.740070E-17    1.758960E-17
1.580000E+03    2.068880E-17    2.158900E-17    2.074340E-17
1.590000E+03    2.607910E-17    2.649330E-17    2.522370E-17
1.600000E+03    3.174340E-17    3.191050E-17    3.078580E-17
1.610000E+03    3.998680E-17    3.959270E-17    3.799220E-17
1.620000E+03    4.608060E-17    4.563730E-17    4.458330E-17
1.630000E+03    5.609350E-17    5.518990E-17    5.357390E-17
1.640000E+03    6.361880E-17    6.298750E-17    6.128430E-17
1.650000E+03    6.851790E-17    6.821910E-17    6.656790E-17
1.660000E+03    7.584150E-17    7.504290E-17    7.284680E-17
1.670000E+03    7.204910E-17    7.225720E-17    7.091990E-17
1.680000E+03    7.957610E-17    7.929920E-17    7.744440E-17
1.690000E+03    7.880520E-17    7.776300E-17    7.587530E-17
1.700000E+03    9.155820E-17    9.221750E-17    9.057350E-17
1.710000E+03    8.969510E-17    8.857930E-17    8.681220E-17
1.720000E+03    9.127630E-17    9.120510E-17    9.004380E-17
1.730000E+03    6.730220E-17    7.109160E-17    7.308890E-17
1.740000E+03    4.677660E-17    5.169830E-17    5.597090E-17
1.750000E+03    3.658940E-17    3.780520E-17    3.961510E-17
1.760000E+03    2.692720E-17    2.840890E-17    2.958350E-17
1.770000E+03    1.980760E-17    2.062670E-17    2.174460E-17
1.780000E+03    1.315560E-17    1.390120E-17    1.500550E-17
1.790000E+03    1.102880E-17    1.152430E-17    1.241020E-17
1.800000E+03    9.612640E-18    9.984690E-18    1.076250E-17
1.810000E+03    9.286470E-18    9.590830E-18    1.031140E-17
1.820000E+03    9.739290E-18    9.928500E-18    1.060250E-17
1.830000E+03    1.019730E-17    1.033200E-17    1.093700E-17
1.840000E+03    1.098090E-17    1.086390E-17    1.133820E-17
1.850000E+03    9.320330E-18    9.630390E-18    1.014780E-17
1.860000E+03    7.777340E-18    7.992030E-18    8.646420E-18
1.870000E+03    5.737360E-18    6.156410E-18    6.775920E-18
1.880000E+03    4.057430E-18    4.335150E-18    4.925850E-18
1.890000E+03    3.562470E-18    3.740730E-18    4.151420E-18
1.900000E+03    2.211420E-18    2.471590E-18    2.889490E-18
1.910000E+03    2.137310E-18    2.211600E-18    2.493560E-18
1.920000E+03    1.735450E-18    1.853690E-18    2.055440E-18
1.930000E+03    1.542220E-18    1.608280E-18    1.760740E-18
1.940000E+03    1.429880E-18    1.485710E-18    1.570080E-18
1.950000E+03    1.349010E-18    1.388730E-18    1.451460E-18
1.960000E+03    1.283760E-18    1.316800E-18    1.369160E-18
1.970000E+03    1.217290E-18    1.249870E-18    1.304740E-18
1.980000E+03    1.167040E-18    1.194910E-18    1.247750E-18
1.990000E+03    1.120620E-18    1.150710E-18    1.199530E-18
2.000000E+03    1.053050E-18    1.094660E-18    1.144170E-18
2.010000E+03    1.006190E-18    1.047140E-18    1.098630E-18
2.020000E+03    9.716310E-19    1.010020E-18    1.059060E-18
2.030000E+03    9.065650E-19    9.558070E-19    1.004170E-18
2.040000E+03    8.341540E-19    8.932130E-19    9.452180E-19
2.050000E+03    7.958560E-19    8.516720E-19    9.016080E-19
2.060000E+03    7.615010E-19    8.157220E-19    8.604210E-19
2.070000E+03    6.935490E-19    7.590760E-19    8.096910E-19
2.080000E+03    6.258320E-19    7.018450E-19    7.502520E-19
2.090000E+03    5.926300E-19    6.649650E-19    7.106610E-19
2.100000E+03    5.561560E-19    6.200350E-19    6.732140E-19
2.110000E+03    5.115920E-19    5.743130E-19    6.300150E-19
2.120000E+03    4.592420E-19    5.269550E-19    5.866280E-19
2.130000E+03    4.263890E-19    4.962130E-19    5.541000E-19
2.140000E+03    3.970310E-19    4.653670E-19    5.231550E-19
2.150000E+03    3.623180E-19    4.289210E-19    4.890560E-19
2.160000E+03    3.324510E-19    3.999760E-19    4.595220E-19
2.170000E+03    3.016950E-19    3.717680E-19    4.314660E-19
2.180000E+03    2.749850E-19    3.425650E-19    4.020400E-19
2.190000E+03    2.457570E-19    3.105330E-19    3.689810E-19
2.200000E+03    2.142950E-19    2.793170E-19    3.376160E-19
2.210000E+03    1.842040E-19    2.504410E-19    3.074030E-19
2.220000E+03    1.576540E-19    2.219370E-19    2.780510E-19
2.230000E+03    1.324470E-19    1.921280E-19    2.473990E-19
2.240000E+03    1.071980E-19    1.624520E-19    2.169990E-19
2.250000E+03    8.756360E-20    1.391310E-19    1.906930E-19
2.260000E+03    6.744590E-20    1.157290E-19    1.650310E-19
2.270000E+03    5.321840E-20    9.594480E-20    1.421300E-19
2.280000E+03    3.863990E-20    7.667850E-20    1.184430E-19
2.290000E+03    3.068880E-20    6.208240E-20    9.878390E-20
2.300000E+03    2.329980E-20    4.926610E-20    8.074630E-20
2.310000E+03    1.973100E-20    4.018560E-20    6.867040E-20
2.320000E+03    1.423610E-20    3.123430E-20    5.681230E-20
2.330000E+03    1.423610E-20    3.123430E-20    5.681230E-20
2.340000E+03    1.423610E-20    3.123430E-20    5.681230E-20
2.350000E+03    1.423610E-20    3.123430E-20    5.681230E-20
2.360000E+03    1.423610E-20    3.123430E-20    5.681230E-20
2.370000E+03    1.423610E-20    3.123430E-20    5.681230E-20
2.380000E+03    1.423610E-20    3.123430E-20    5.681230E-20
2.390000E+03    1.423610E-20    3.123430E-20    5.681230E-20
2.400000E+03    1.423610E-20    3.123430E-20    5.681230E-20
2.410000E+03    1.423610E-20    3.123430E-20    5.681230E-20
2.420000E+03    1.423610E-20    3.123430E-20    5.681230E-20
2.430000E+03    1.423610E-20    3.123430E-20    5.681230E-20
2.440000E+03    1.423610E-20    3.123430E-20    5.681230E-20
2.450000E+03    1.423610E-20    3.123430E-20    5.681230E-20
2.460000E+03    1.423610E-20    3.123430E-20    5.681230E-20
2.470000E+03    1.423610E-20    3.123430E-20    5.681230E-20
2.480000E+03    1.423610E-20    3.123430E-20    5.681230E-20
2.490000E+03    1.423610E-20    3.123430E-20    5.681230E-20
2.500000E+03    1.423610E-20    3.123430E-20    5.681230E-20
2.510000E+03    1.423610E-20    3.123430E-20    5.681230E-20
2.520000E+03    1.423610E-20    3.123430E-20    5.681230E-20
2.530000E+03    1.423610E-20    3.123430E-20    5.681230E-20
2.540000E+03    1.423610E-20    3.123430E-20    5.681230E-20
2.550000E+03    1.423610E-20    3.123430E-20    5.681230E-20
2.560000E+03    1.423610E-20    3.123430E-20    5.681230E-20
2.570000E+03    1.423610E-20    3.123430E-20    5.681230E-20
2.580000E+03    1.423610E-20    3.123430E-20    5.681230E-20
2.590000E+03    1.423610E-20    3.123430E-20    5.681230E-20
2.600000E+03    1.423610E-20    3.123430E-20    5.681230E-20
