Nick Wogan MPI script from MPI data base, Rabalais et al 1971, Laufer and Keller 1971
Air:  
Temp:           300K
Angstroms       XS
1.940000E+03    0.000000E+00
1.951500E+03    5.870000E-19
1.956700E+03    5.990000E-19
1.961900E+03    6.120000E-19
1.966700E+03    6.450000E-19
1.971000E+03    6.900000E-19
1.974900E+03    7.370000E-19
1.978100E+03    7.940000E-19
1.980800E+03    8.590000E-19
1.983100E+03    9.270000E-19
1.985600E+03    9.890000E-19
1.988100E+03    1.050000E-18
1.990900E+03    1.110000E-18
1.993200E+03    1.160000E-18
1.994300E+03    1.170000E-18
1.998100E+03    1.160000E-18
2.002800E+03    1.130000E-18
2.008300E+03    1.150000E-18
2.013000E+03    1.180000E-18
2.017100E+03    1.230000E-18
2.018300E+03    1.260000E-18
2.020600E+03    1.330000E-18
2.022700E+03    1.410000E-18
2.023900E+03    1.490000E-18
2.025300E+03    1.560000E-18
2.026500E+03    1.650000E-18
2.027400E+03    1.720000E-18
2.028800E+03    1.820000E-18
2.030600E+03    1.930000E-18
2.032300E+03    2.030000E-18
2.034400E+03    2.120000E-18
2.035900E+03    2.160000E-18
2.037600E+03    2.110000E-18
2.039100E+03    2.010000E-18
2.040400E+03    1.930000E-18
2.041000E+03    1.800000E-18
2.042500E+03    1.680000E-18
2.043800E+03    1.570000E-18
2.045600E+03    1.470000E-18
2.048400E+03    1.370000E-18
2.051400E+03    1.310000E-18
2.055700E+03    1.250000E-18
2.060200E+03    1.260000E-18
2.063400E+03    1.320000E-18
2.065600E+03    1.390000E-18
2.066400E+03    1.420000E-18
2.068300E+03    1.490000E-18
2.069800E+03    1.560000E-18
2.071000E+03    1.640000E-18
2.072200E+03    1.740000E-18
2.073700E+03    1.840000E-18
2.073900E+03    1.930000E-18
2.074600E+03    2.010000E-18
2.075100E+03    2.150000E-18
2.075600E+03    2.300000E-18
2.076800E+03    2.410000E-18
2.078000E+03    2.530000E-18
2.079300E+03    2.570000E-18
2.082100E+03    2.610000E-18
2.084400E+03    2.540000E-18
2.086200E+03    2.470000E-18
2.088900E+03    2.360000E-18
2.091800E+03    2.190000E-18
2.093500E+03    2.010000E-18
2.095400E+03    1.840000E-18
2.099100E+03    1.720000E-18
2.103800E+03    1.830000E-18
2.106800E+03    1.980000E-18
2.109300E+03    2.130000E-18
2.111200E+03    2.400000E-18
2.112100E+03    2.670000E-18
2.112500E+03    2.880000E-18
2.114900E+03    3.140000E-18
2.117400E+03    3.370000E-18
2.120400E+03    3.590000E-18
2.122700E+03    3.760000E-18
2.125000E+03    3.890000E-18
2.127200E+03    3.830000E-18
2.129400E+03    3.710000E-18
2.131700E+03    3.540000E-18
2.134200E+03    3.340000E-18
2.136600E+03    3.080000E-18
2.138900E+03    2.840000E-18
2.140900E+03    2.620000E-18
2.143000E+03    2.380000E-18
2.144800E+03    2.100000E-18
2.145600E+03    1.790000E-18
2.146900E+03    1.470000E-18
2.149000E+03    1.170000E-18
2.153000E+03    8.710000E-19
2.157600E+03    6.770000E-19
2.160400E+03    5.830000E-19
2.163700E+03    5.180000E-19
2.165400E+03    4.890000E-19
2.168500E+03    4.270000E-19
2.173000E+03    3.750000E-19
2.177500E+03    3.190000E-19
2.182300E+03    2.720000E-19
2.184600E+03    2.550000E-19
2.189900E+03    2.200000E-19
2.195900E+03    1.790000E-19
2.201900E+03    1.450000E-19
2.208300E+03    1.160000E-19
2.214300E+03    9.280000E-20
2.220700E+03    7.290000E-20
2.223000E+03    6.160000E-20
2.226600E+03    5.030000E-20
2.229600E+03    3.900000E-20
2.231900E+03    3.630000E-20
2.233600E+03    3.430000E-20
2.235400E+03    3.140000E-20
2.237800E+03    2.890000E-20
2.241000E+03    2.630000E-20
2.244200E+03    2.390000E-20
2.247800E+03    2.100000E-20
2.251400E+03    1.850000E-20
2.254900E+03    1.620000E-20
2.259100E+03    1.410000E-20
2.264400E+03    1.200000E-20
2.268500E+03    1.070000E-20
2.274100E+03    9.130000E-21
2.277900E+03    8.190000E-21
2.281400E+03    7.550000E-21
2.288000E+03    6.380000E-21
2.293000E+03    5.820000E-21
2.298600E+03    5.390000E-21
2.304000E+03    4.890000E-21
2.310300E+03    4.550000E-21
2.316400E+03    4.170000E-21
2.322700E+03    3.820000E-21
2.329200E+03    3.530000E-21
2.336300E+03    3.250000E-21
2.343400E+03    3.080000E-21
2.350900E+03    2.910000E-21
2.358400E+03    2.740000E-21
2.366000E+03    2.570000E-21
2.373700E+03    2.370000E-21
2.381300E+03    2.320000E-21
2.389100E+03    2.210000E-21
2.396900E+03    2.130000E-21
2.405000E+03    2.070000E-21
2.412900E+03    1.960000E-21
2.421500E+03    1.910000E-21
2.429900E+03    1.890000E-21
2.437900E+03    1.840000E-21
2.446400E+03    1.820000E-21
2.454900E+03    1.830000E-21
2.463800E+03    1.830000E-21
2.472000E+03    1.930000E-21
2.480700E+03    1.940000E-21
2.489400E+03    2.000000E-21
2.498300E+03    1.980000E-21
2.507500E+03    2.020000E-21
2.516400E+03    2.060000E-21
2.525400E+03    2.120000E-21
2.534800E+03    2.160000E-21
2.544000E+03    2.260000E-21
2.552800E+03    2.290000E-21
2.562000E+03    2.300000E-21
2.571300E+03    2.400000E-21
2.580700E+03    2.460000E-21
2.590200E+03    2.560000E-21
2.599700E+03    2.660000E-21
2.609300E+03    2.780000E-21
2.618500E+03    2.880000E-21
2.628300E+03    3.030000E-21
2.637200E+03    3.190000E-21
2.647100E+03    3.310000E-21
2.656200E+03    3.520000E-21
2.665800E+03    3.680000E-21
2.675400E+03    3.920000E-21
2.684700E+03    4.160000E-21
2.694000E+03    4.500000E-21
2.703500E+03    4.770000E-21
2.712500E+03    5.070000E-21
2.722000E+03    5.370000E-21
2.731600E+03    5.760000E-21
2.740400E+03    6.120000E-21
2.749700E+03    6.480000E-21
2.758600E+03    6.810000E-21
2.768000E+03    7.200000E-21
2.776500E+03    7.620000E-21
2.785600E+03    8.010000E-21
2.794700E+03    8.430000E-21
2.803400E+03    8.850000E-21
2.812600E+03    9.290000E-21
2.821400E+03    9.710000E-21
2.830300E+03    1.020000E-20
2.838300E+03    1.060000E-20
2.846800E+03    1.110000E-20
2.854900E+03    1.160000E-20
2.863500E+03    1.210000E-20
2.871100E+03    1.260000E-20
2.879800E+03    1.310000E-20
2.887600E+03    1.360000E-20
2.896400E+03    1.410000E-20
2.906700E+03    1.490000E-20
2.914600E+03    1.540000E-20
2.923000E+03    1.590000E-20
2.930500E+03    1.650000E-20
2.938500E+03    1.700000E-20
2.946100E+03    1.760000E-20
2.954200E+03    1.810000E-20
2.962300E+03    1.860000E-20
2.970500E+03    1.920000E-20
2.978300E+03    1.970000E-20
2.986000E+03    2.030000E-20
2.993300E+03    2.090000E-20
3.001100E+03    2.150000E-20
3.009000E+03    2.210000E-20
3.016900E+03    2.260000E-20
3.024400E+03    2.320000E-20
3.032300E+03    2.390000E-20
3.040400E+03    2.450000E-20
3.052900E+03    2.460000E-20
3.064500E+03    2.480000E-20
3.069400E+03    2.550000E-20
3.074200E+03    2.620000E-20
3.079100E+03    2.680000E-20
3.090300E+03    2.700000E-20
3.099300E+03    2.750000E-20
3.104800E+03    2.810000E-20
3.110200E+03    2.930000E-20
3.115700E+03    3.070000E-20
3.121500E+03    3.030000E-20
3.130300E+03    2.980000E-20
3.136500E+03    3.030000E-20
3.148000E+03    3.120000E-20
3.155700E+03    3.060000E-20
3.165800E+03    3.010000E-20
3.171600E+03    3.070000E-20
3.174400E+03    3.160000E-20
3.177000E+03    3.330000E-20
3.177400E+03    3.440000E-20
3.180100E+03    3.550000E-20
3.186200E+03    3.490000E-20
3.190600E+03    3.400000E-20
3.195700E+03    3.290000E-20
3.205500E+03    3.220000E-20
3.213300E+03    3.280000E-20
3.215500E+03    3.350000E-20
3.219600E+03    3.460000E-20
3.224500E+03    3.430000E-20
3.231500E+03    3.360000E-20
3.244500E+03    3.340000E-20
3.246300E+03    3.360000E-20
3.257500E+03    3.370000E-20
3.259500E+03    3.350000E-20
3.266500E+03    3.290000E-20
3.280500E+03    3.270000E-20
3.285400E+03    3.330000E-20
3.289700E+03    3.380000E-20
3.293900E+03    3.260000E-20
3.297900E+03    3.190000E-20
3.304600E+03    3.330000E-20
3.307500E+03    3.220000E-20
3.312100E+03    3.170000E-20
3.319100E+03    3.220000E-20
3.326900E+03    3.250000E-20
3.334600E+03    3.310000E-20
3.344500E+03    3.280000E-20
3.353900E+03    3.220000E-20
3.364000E+03    3.170000E-20
3.373600E+03    3.110000E-20
3.381800E+03    3.040000E-20
3.390100E+03    2.980000E-20
3.398400E+03    2.920000E-20
3.408800E+03    2.840000E-20
3.417900E+03    2.780000E-20
3.426000E+03    2.720000E-20
3.434100E+03    2.660000E-20
3.443300E+03    2.610000E-20
3.454000E+03    2.550000E-20
3.464100E+03    2.490000E-20
3.472700E+03    2.430000E-20
3.482200E+03    2.370000E-20
3.490900E+03    2.300000E-20
3.498300E+03    2.240000E-20
3.506400E+03    2.170000E-20
3.513200E+03    2.100000E-20
3.519900E+03    2.060000E-20
3.526600E+03    1.990000E-20
3.532700E+03    1.920000E-20
3.538800E+03    1.860000E-20
3.544900E+03    1.790000E-20
3.547900E+03    1.760000E-20
3.554800E+03    1.690000E-20
3.562500E+03    1.590000E-20
3.570200E+03    1.530000E-20
3.578000E+03    1.450000E-20
3.585700E+03    1.380000E-20
3.594300E+03    1.300000E-20
3.602900E+03    1.240000E-20
3.610800E+03    1.180000E-20
3.619400E+03    1.110000E-20
3.627400E+03    1.050000E-20
3.636900E+03    9.850000E-21
3.646400E+03    9.200000E-21
3.653700E+03    8.700000E-21
3.663300E+03    8.060000E-21
3.673800E+03    7.480000E-21
3.684400E+03    6.860000E-21
3.694200E+03    6.250000E-21
3.706500E+03    5.720000E-21
3.719600E+03    5.200000E-21
3.735400E+03    4.700000E-21
3.749600E+03    4.210000E-21
3.776500E+03    3.120000E-21
3.803200E+03    2.430000E-21
3.833000E+03    1.750000E-21
3.870100E+03    1.310000E-21
3.901300E+03    1.000000E-21
3.929600E+03    7.770000E-22
3.962300E+03    5.720000E-22
3.990500E+03    4.360000E-22
4.023200E+03    3.240000E-22
4.048500E+03    2.570000E-22
4.078200E+03    1.950000E-22
4.107900E+03    1.510000E-22
4.139200E+03    1.120000E-22
4.171900E+03    8.330000E-23
4.195700E+03    6.560000E-23
4.223900E+03    4.990000E-23
4.252200E+03    3.740000E-23
4.283400E+03    2.820000E-23
4.313200E+03    2.090000E-23
4.344400E+03    1.580000E-23
4.371200E+03    1.200000E-23
4.408300E+03    8.640000E-24
4.443900E+03    7.090000E-24
4.482300E+03    5.960000E-24
4.490000E+03    0.000000E+00