S2 Stark et al. 2018, 370 K 
Air:  
Temp:           
Angstroms       XS
2.409636E+03    4.073340E-18
2.409642E+03    4.014758E-18
2.409647E+03    4.161982E-18
2.409652E+03    4.580687E-18
2.409657E+03    5.242801E-18
2.409663E+03    6.026502E-18
2.409668E+03    6.756289E-18
2.409673E+03    7.273846E-18
2.409678E+03    7.508413E-18
2.409683E+03    7.505633E-18
2.409689E+03    7.393830E-18
2.409694E+03    7.307178E-18
2.409699E+03    7.310617E-18
2.409704E+03    7.365803E-18
2.409709E+03    7.354964E-18
2.409715E+03    7.151733E-18
2.409720E+03    6.702073E-18
2.409725E+03    6.065546E-18
2.409730E+03    5.388930E-18
2.409736E+03    4.828893E-18
2.409741E+03    4.471505E-18
2.409746E+03    4.292256E-18
2.409751E+03    4.176512E-18
2.409756E+03    3.993148E-18
2.409762E+03    3.686072E-18
2.409767E+03    3.329781E-18
2.409772E+03    3.111151E-18
2.409777E+03    3.246377E-18
2.409783E+03    3.877299E-18
2.409788E+03    4.993122E-18
2.409793E+03    6.404233E-18
2.409798E+03    7.784790E-18
2.409803E+03    8.784402E-18
2.409809E+03    9.172136E-18
2.409814E+03    8.931615E-18
2.409819E+03    8.241193E-18
2.409824E+03    7.359059E-18
2.409829E+03    6.499825E-18
2.409835E+03    5.773207E-18
2.409840E+03    5.197471E-18
2.409845E+03    4.757182E-18
2.409850E+03    4.459648E-18
2.409856E+03    4.352279E-18
2.409861E+03    4.491382E-18
2.409866E+03    4.884155E-18
2.409871E+03    5.443118E-18
2.409876E+03    5.989185E-18
2.409882E+03    6.317305E-18
2.409887E+03    6.300744E-18
2.409892E+03    5.970327E-18
2.409897E+03    5.507125E-18
2.409903E+03    5.146017E-18
2.409908E+03    5.048808E-18
2.409913E+03    5.216047E-18
2.409918E+03    5.479310E-18
2.409923E+03    5.585085E-18
2.409929E+03    5.341746E-18
2.409934E+03    4.750697E-18
2.409939E+03    4.029527E-18
2.409944E+03    3.507702E-18
2.409950E+03    3.464999E-18
2.409955E+03    4.001164E-18
2.409960E+03    4.984197E-18
2.409965E+03    6.094442E-18
2.409970E+03    6.963116E-18
2.409976E+03    7.358536E-18
2.409981E+03    7.309732E-18
2.409986E+03    7.070238E-18
2.409991E+03    6.945358E-18
2.409997E+03    7.102496E-18
2.410002E+03    7.469224E-18
2.410007E+03    7.763868E-18
2.410012E+03    7.655112E-18
2.410017E+03    6.980329E-18
2.410023E+03    5.880614E-18
2.410028E+03    4.745216E-18
2.410033E+03    4.010597E-18
2.410038E+03    3.952683E-18
2.410043E+03    4.565409E-18
2.410049E+03    5.552156E-18
2.410054E+03    6.439736E-18
2.410059E+03    6.804825E-18
2.410064E+03    6.514125E-18
2.410070E+03    5.805625E-18
2.410075E+03    5.139345E-18
2.410080E+03    4.937302E-18
2.410085E+03    5.376785E-18
2.410090E+03    6.309401E-18
2.410096E+03    7.315192E-18
2.410101E+03    7.891530E-18
2.410106E+03    7.721745E-18
2.410111E+03    6.861655E-18
2.410117E+03    5.693802E-18
2.410122E+03    4.692403E-18
2.410127E+03    4.182970E-18
2.410132E+03    4.221098E-18
2.410137E+03    4.607603E-18
2.410143E+03    5.013482E-18
2.410148E+03    5.166072E-18
2.410153E+03    5.002425E-18
2.410158E+03    4.687990E-18
2.410164E+03    4.488802E-18
2.410169E+03    4.590993E-18
2.410174E+03    4.977617E-18
2.410179E+03    5.421423E-18
2.410184E+03    5.602236E-18
2.410190E+03    5.301961E-18
2.410195E+03    4.559882E-18
2.410200E+03    3.671114E-18
2.410205E+03    3.028530E-18
2.410211E+03    2.921853E-18
2.410216E+03    3.400398E-18
2.410221E+03    4.241876E-18
2.410226E+03    5.037196E-18
2.410231E+03    5.382778E-18
2.410237E+03    5.102315E-18
2.410242E+03    4.352446E-18
2.410247E+03    3.527619E-18
2.410252E+03    3.043494E-18
2.410257E+03    3.145463E-18
2.410263E+03    3.820983E-18
2.410268E+03    4.822017E-18
2.410273E+03    5.782975E-18
2.410278E+03    6.399193E-18
2.410284E+03    6.581157E-18
2.410289E+03    6.483472E-18
2.410294E+03    6.389982E-18
2.410299E+03    6.542523E-18
2.410304E+03    7.017722E-18
2.410310E+03    7.700903E-18
2.410315E+03    8.354516E-18
2.410320E+03    8.747060E-18
2.410325E+03    8.776054E-18
2.410331E+03    8.510582E-18
2.410336E+03    8.129271E-18
2.410341E+03    7.805938E-18
2.410346E+03    7.620107E-18
2.410351E+03    7.537404E-18
2.410357E+03    7.457356E-18
2.410362E+03    7.292445E-18
2.410367E+03    7.027983E-18
2.410372E+03    6.725203E-18
2.410378E+03    6.470182E-18
2.410383E+03    6.308149E-18
2.410388E+03    6.208885E-18
2.410393E+03    6.086424E-18
2.410398E+03    5.861958E-18
2.410404E+03    5.529958E-18
2.410409E+03    5.179505E-18
2.410414E+03    4.952250E-18
2.410419E+03    4.960258E-18
2.410425E+03    5.211638E-18
2.410430E+03    5.585050E-18
2.410435E+03    5.873025E-18
2.410440E+03    5.883085E-18
2.410445E+03    5.546792E-18
2.410451E+03    4.965839E-18
2.410456E+03    4.360649E-18
2.410461E+03    3.956441E-18
2.410466E+03    3.876788E-18
2.410472E+03    4.095835E-18
2.410477E+03    4.464437E-18
2.410482E+03    4.796272E-18
2.410487E+03    4.971547E-18
2.410492E+03    4.997882E-18
2.410498E+03    4.985934E-18
2.410503E+03    5.056008E-18
2.410508E+03    5.237155E-18
2.410513E+03    5.422203E-18
2.410519E+03    5.412461E-18
2.410524E+03    5.039049E-18
2.410529E+03    4.293352E-18
2.410534E+03    3.373426E-18
2.410539E+03    2.606872E-18
2.410545E+03    2.300701E-18
2.410550E+03    2.601887E-18
2.410555E+03    3.422929E-18
2.410560E+03    4.456031E-18
2.410566E+03    5.289344E-18
2.410571E+03    5.603867E-18
2.410576E+03    5.352289E-18
2.410581E+03    4.788084E-18
2.410586E+03    4.316592E-18
2.410592E+03    4.276850E-18
2.410597E+03    4.778255E-18
2.410602E+03    5.646244E-18
2.410607E+03    6.489887E-18
2.410613E+03    6.887376E-18
2.410618E+03    6.624427E-18
2.410623E+03    5.835452E-18
2.410628E+03    4.935299E-18
2.410633E+03    4.398747E-18
2.410639E+03    4.541570E-18
2.410644E+03    5.396352E-18
2.410649E+03    6.696399E-18
2.410654E+03    7.968711E-18
2.410660E+03    8.734951E-18
2.410665E+03    8.753433E-18
2.410670E+03    8.147297E-18
2.410675E+03    7.314588E-18
2.410680E+03    6.696578E-18
2.410686E+03    6.567941E-18
2.410691E+03    6.938475E-18
2.410696E+03    7.572262E-18
2.410701E+03    8.106001E-18
2.410707E+03    8.231348E-18
2.410712E+03    7.858928E-18
2.410717E+03    7.159731E-18
2.410722E+03    6.458089E-18
2.410727E+03    6.059009E-18
2.410733E+03    6.112232E-18
2.410738E+03    6.560721E-18
2.410743E+03    7.174162E-18
2.410748E+03    7.652182E-18
2.410754E+03    7.762266E-18
2.410759E+03    7.446675E-18
2.410764E+03    6.835007E-18
2.410769E+03    6.158869E-18
2.410774E+03    5.631137E-18
2.410780E+03    5.358028E-18
2.410785E+03    5.315268E-18
2.410790E+03    5.384265E-18
2.410795E+03    5.425344E-18
2.410801E+03    5.353841E-18
2.410806E+03    5.181420E-18
2.410811E+03    5.002153E-18
2.410816E+03    4.934948E-18
2.410821E+03    5.056061E-18
2.410827E+03    5.354722E-18
2.410832E+03    5.729150E-18
2.410837E+03    6.024809E-18
2.410842E+03    6.101279E-18
2.410848E+03    5.898088E-18
2.410853E+03    5.465561E-18
2.410858E+03    4.943520E-18
2.410863E+03    4.501682E-18
2.410868E+03    4.273594E-18
2.410874E+03    4.311653E-18
2.410879E+03    4.575344E-18
2.410884E+03    4.952044E-18
2.410889E+03    5.302786E-18
2.410895E+03    5.517096E-18
2.410900E+03    5.554498E-18
2.410905E+03    5.453922E-18
2.410910E+03    5.307564E-18
2.410915E+03    5.214237E-18
2.410921E+03    5.235256E-18
2.410926E+03    5.370028E-18
2.410931E+03    5.558116E-18
2.410936E+03    5.705330E-18
2.410942E+03    5.723845E-18
2.410947E+03    5.571084E-18
2.410952E+03    5.270876E-18
2.410957E+03    4.908598E-18
2.410962E+03    4.603149E-18
2.410968E+03    4.468502E-18
2.410973E+03    4.577515E-18
2.410978E+03    4.936654E-18
2.410983E+03    5.475725E-18
2.410989E+03    6.057324E-18
2.410994E+03    6.509229E-18
2.410999E+03    6.677979E-18
2.411004E+03    6.488579E-18
2.411010E+03    5.982687E-18
2.411015E+03    5.311653E-18
2.411020E+03    4.684228E-18
2.411025E+03    4.292662E-18
2.411030E+03    4.247060E-18
2.411036E+03    4.539330E-18
2.411041E+03    5.047089E-18
2.411046E+03    5.581751E-18
2.411051E+03    5.970861E-18
2.411056E+03    6.142454E-18
2.411062E+03    6.162943E-18
2.411067E+03    6.199151E-18
2.411072E+03    6.421391E-18
2.411077E+03    6.896150E-18
2.411083E+03    7.518407E-18
2.411088E+03    8.020085E-18
2.411093E+03    8.073724E-18
2.411098E+03    7.465920E-18
2.411104E+03    6.245211E-18
2.411109E+03    4.734521E-18
2.411114E+03    3.395382E-18
2.411119E+03    2.639825E-18
2.411124E+03    2.684606E-18
2.411130E+03    3.479441E-18
2.411135E+03    4.708200E-18
2.411140E+03    5.876289E-18
2.411145E+03    6.497224E-18
2.411151E+03    6.323884E-18
2.411156E+03    5.478169E-18
2.411161E+03    4.372580E-18
2.411166E+03    3.488983E-18
2.411171E+03    3.169608E-18
2.411177E+03    3.507756E-18
2.411182E+03    4.339504E-18
2.411187E+03    5.317678E-18
2.411192E+03    6.053983E-18
2.411198E+03    6.288713E-18
2.411203E+03    6.001759E-18
2.411208E+03    5.393662E-18
2.411213E+03    4.757323E-18
2.411218E+03    4.334146E-18
2.411224E+03    4.230824E-18
2.411229E+03    4.413810E-18
2.411234E+03    4.760568E-18
2.411239E+03    5.134064E-18
2.411245E+03    5.443719E-18
2.411250E+03    5.665780E-18
2.411255E+03    5.820114E-18
2.411260E+03    5.927523E-18
2.411265E+03    5.980475E-18
2.411271E+03    5.946236E-18
2.411276E+03    5.796795E-18
2.411281E+03    5.541899E-18
2.411286E+03    5.239941E-18
2.411292E+03    4.977265E-18
2.411297E+03    4.829448E-18
2.411302E+03    4.828096E-18
2.411307E+03    4.951335E-18
2.411313E+03    5.141041E-18
2.411318E+03    5.334668E-18
2.411323E+03    5.491527E-18
2.411328E+03    5.597340E-18
2.411333E+03    5.647252E-18
2.411339E+03    5.623887E-18
2.411344E+03    5.492677E-18
2.411349E+03    5.224466E-18
2.411354E+03    4.834088E-18
2.411360E+03    4.406039E-18
2.411365E+03    4.082560E-18
2.411370E+03    4.011584E-18
2.411375E+03    4.277373E-18
2.411380E+03    4.845746E-18
2.411386E+03    5.552369E-18
2.411391E+03    6.151427E-18
2.411396E+03    6.419064E-18
2.411401E+03    6.266013E-18
2.411407E+03    5.788143E-18
2.411412E+03    5.214805E-18
2.411417E+03    4.788414E-18
2.411422E+03    4.648391E-18
2.411427E+03    4.775495E-18
2.411433E+03    5.016108E-18
2.411438E+03    5.175794E-18
2.411443E+03    5.139748E-18
2.411448E+03    4.950894E-18
2.411454E+03    4.791403E-18
2.411459E+03    4.876991E-18
2.411464E+03    5.327894E-18
2.411469E+03    6.082228E-18
2.411475E+03    6.893371E-18
2.411480E+03    7.427427E-18
2.411485E+03    7.434650E-18
2.411490E+03    6.902069E-18
2.411495E+03    6.075741E-18
2.411501E+03    5.332381E-18
2.411506E+03    4.993447E-18
2.411511E+03    5.186593E-18
2.411516E+03    5.800223E-18
2.411522E+03    6.536311E-18
2.411527E+03    7.049248E-18
2.411532E+03    7.121550E-18
2.411537E+03    6.776957E-18
2.411542E+03    6.249820E-18
2.411548E+03    5.836109E-18
2.411553E+03    5.730058E-18
2.411558E+03    5.934448E-18
2.411563E+03    6.273734E-18
2.411569E+03    6.498492E-18
2.411574E+03    6.433926E-18
2.411579E+03    6.088903E-18
2.411584E+03    5.651719E-18
2.411590E+03    5.377326E-18
2.411595E+03    5.442799E-18
2.411600E+03    5.850262E-18
2.411605E+03    6.416959E-18
2.411610E+03    6.857932E-18
2.411616E+03    6.933152E-18
2.411621E+03    6.584570E-18
2.411626E+03    5.972519E-18
2.411631E+03    5.386930E-18
2.411636E+03    5.098532E-18
2.411642E+03    5.238361E-18
2.411647E+03    5.751405E-18
2.411652E+03    6.427856E-18
2.411657E+03    6.996418E-18
2.411663E+03    7.242986E-18
2.411668E+03    7.097187E-18
2.411673E+03    6.638952E-18
2.411678E+03    6.030942E-18
2.411684E+03    5.431931E-18
2.411689E+03    4.944618E-18
2.411694E+03    4.613673E-18
2.411699E+03    4.454361E-18
2.411704E+03    4.479090E-18
2.411710E+03    4.698630E-18
2.411715E+03    5.097089E-18
2.411720E+03    5.601543E-18
2.411725E+03    6.077309E-18
2.411731E+03    6.368583E-18
2.411736E+03    6.375581E-18
2.411741E+03    6.123700E-18
2.411746E+03    5.771528E-18
2.411751E+03    5.542138E-18
2.411757E+03    5.613550E-18
2.411762E+03    6.024599E-18
2.411767E+03    6.639313E-18
2.411772E+03    7.192233E-18
2.411778E+03    7.411346E-18
2.411783E+03    7.166821E-18
2.411788E+03    6.552206E-18
2.411793E+03    5.835487E-18
2.411799E+03    5.313459E-18
2.411804E+03    5.164480E-18
2.411809E+03    5.371254E-18
2.411814E+03    5.739000E-18
2.411819E+03    6.001625E-18
2.411825E+03    5.972940E-18
2.411830E+03    5.658086E-18
2.411835E+03    5.247201E-18
2.411840E+03    4.993749E-18
2.411846E+03    5.060134E-18
2.411851E+03    5.417285E-18
2.411856E+03    5.845786E-18
2.411861E+03    6.046612E-18
2.411866E+03    5.819702E-18
2.411872E+03    5.205304E-18
2.411877E+03    4.481636E-18
2.411882E+03    4.016437E-18
2.411887E+03    4.073452E-18
2.411893E+03    4.674334E-18
2.411898E+03    5.563166E-18
2.411903E+03    6.296121E-18
2.411908E+03    6.453025E-18
2.411914E+03    5.881913E-18
2.411919E+03    4.804903E-18
2.411924E+03    3.694624E-18
2.411929E+03    3.023892E-18
2.411934E+03    3.054972E-18
2.411940E+03    3.743935E-18
2.411945E+03    4.763059E-18
2.411950E+03    5.636548E-18
2.411955E+03    5.966468E-18
2.411961E+03    5.644152E-18
2.411966E+03    4.896868E-18
2.411971E+03    4.133842E-18
2.411976E+03    3.717877E-18
2.411981E+03    3.806636E-18
2.411987E+03    4.316406E-18
2.411992E+03    4.995538E-18
2.411997E+03    5.570294E-18
2.412002E+03    5.895025E-18
2.412008E+03    6.016967E-18
2.412013E+03    6.110869E-18
2.412018E+03    6.332670E-18
2.412023E+03    6.690842E-18
2.412029E+03    7.011155E-18
2.412034E+03    7.021147E-18
2.412039E+03    6.519534E-18
2.412044E+03    5.527990E-18
2.412049E+03    4.311722E-18
2.412055E+03    3.252627E-18
2.412060E+03    2.669606E-18
2.412065E+03    2.687795E-18
2.412070E+03    3.199431E-18
2.412076E+03    3.918397E-18
2.412081E+03    4.514316E-18
2.412086E+03    4.776544E-18
2.412091E+03    4.715555E-18
2.412097E+03    4.528855E-18
2.412102E+03    4.456824E-18
2.412107E+03    4.628238E-18
2.412112E+03    4.982581E-18
2.412117E+03    5.304687E-18
2.412123E+03    5.357711E-18
2.412128E+03    5.047021E-18
2.412133E+03    4.506786E-18
2.412138E+03    4.042612E-18
2.412144E+03    3.969639E-18
2.412149E+03    4.445508E-18
2.412154E+03    5.372438E-18
2.412159E+03    6.403908E-18
2.412165E+03    7.075771E-18
2.412170E+03    7.037873E-18
2.412175E+03    6.262922E-18
2.412180E+03    5.070975E-18
2.412185E+03    3.947730E-18
2.412191E+03    3.300205E-18
2.412196E+03    3.290335E-18
2.412201E+03    3.788000E-18
2.412206E+03    4.436326E-18
2.412212E+03    4.817100E-18
2.412217E+03    4.667213E-18
2.412222E+03    4.027036E-18
2.412227E+03    3.213219E-18
2.412232E+03    2.641938E-18
2.412238E+03    2.629920E-18
2.412243E+03    3.270926E-18
2.412248E+03    4.408658E-18
2.412253E+03    5.697978E-18
2.412259E+03    6.742303E-18
2.412264E+03    7.266118E-18
2.412269E+03    7.232698E-18
2.412274E+03    6.828550E-18
2.412280E+03    6.333361E-18
2.412285E+03    5.973338E-18
2.412290E+03    5.840520E-18
2.412295E+03    5.897041E-18
2.412300E+03    6.038359E-18
2.412306E+03    6.171868E-18
2.412311E+03    6.266079E-18
2.412316E+03    6.344694E-18
2.412321E+03    6.436441E-18
2.412327E+03    6.520102E-18
2.412332E+03    6.506373E-18
2.412337E+03    6.275563E-18
2.412342E+03    5.754730E-18
2.412348E+03    4.986620E-18
2.412353E+03    4.140645E-18
2.412358E+03    3.454169E-18
2.412363E+03    3.137762E-18
2.412368E+03    3.291436E-18
2.412374E+03    3.861831E-18
2.412379E+03    4.652962E-18
2.412384E+03    5.391828E-18
2.412389E+03    5.834410E-18
2.412395E+03    5.868282E-18
2.412400E+03    5.554335E-18
2.412405E+03    5.082011E-18
2.412410E+03    4.670751E-18
2.412416E+03    4.477775E-18
2.412421E+03    4.551123E-18
2.412426E+03    4.834386E-18
2.412431E+03    5.208289E-18
2.412436E+03    5.546377E-18
2.412442E+03    5.759564E-18
2.412447E+03    5.812276E-18
2.412452E+03    5.710332E-18
2.412457E+03    5.477773E-18
2.412463E+03    5.143455E-18
2.412468E+03    4.745851E-18
2.412473E+03    4.346667E-18
2.412478E+03    4.035682E-18
2.412483E+03    3.913315E-18
2.412489E+03    4.053189E-18
2.412494E+03    4.459689E-18
2.412499E+03    5.041968E-18
2.412504E+03    5.624120E-18
2.412510E+03    6.000791E-18
2.412515E+03    6.024521E-18
2.412520E+03    5.682554E-18
2.412525E+03    5.113178E-18
2.412531E+03    4.547247E-18
2.412536E+03    4.209029E-18
2.412541E+03    4.227460E-18
2.412546E+03    4.591586E-18
2.412552E+03    5.161553E-18
2.412557E+03    5.730451E-18
2.412562E+03    6.116906E-18
2.412567E+03    6.245837E-18
2.412572E+03    6.170579E-18
2.412578E+03    6.021488E-18
2.412583E+03    5.914459E-18
2.412588E+03    5.874308E-18
2.412593E+03    5.814388E-18
2.412599E+03    5.584788E-18
2.412604E+03    5.068672E-18
2.412609E+03    4.273824E-18
2.412614E+03    3.360471E-18
2.412620E+03    2.585249E-18
2.412625E+03    2.195909E-18
2.412630E+03    2.331769E-18
2.412635E+03    2.965835E-18
2.412640E+03    3.902945E-18
2.412646E+03    4.839037E-18
2.412651E+03    5.473368E-18
2.412656E+03    5.633504E-18
2.412661E+03    5.343793E-18
2.412667E+03    4.792087E-18
2.412672E+03    4.222040E-18
2.412677E+03    3.822675E-18
2.412682E+03    3.670837E-18
2.412687E+03    3.737548E-18
2.412693E+03    3.939062E-18
2.412698E+03    4.198967E-18
2.412703E+03    4.486519E-18
2.412708E+03    4.810836E-18
2.412714E+03    5.179162E-18
2.412719E+03    5.551685E-18
2.412724E+03    5.829430E-18
2.412729E+03    5.893300E-18
2.412735E+03    5.678730E-18
2.412740E+03    5.238741E-18
2.412745E+03    4.745902E-18
2.412750E+03    4.422913E-18
2.412755E+03    4.437781E-18
2.412761E+03    4.815080E-18
2.412766E+03    5.401994E-18
2.412771E+03    5.912661E-18
2.412776E+03    6.052402E-18
2.412782E+03    5.675449E-18
2.412787E+03    4.880532E-18
2.412792E+03    3.970731E-18
2.412797E+03    3.304758E-18
2.412803E+03    3.133912E-18
2.412808E+03    3.498792E-18
2.412813E+03    4.210610E-18
2.412818E+03    4.923012E-18
2.412824E+03    5.285403E-18
2.412829E+03    5.121093E-18
2.412834E+03    4.523070E-18
2.412839E+03    3.795086E-18
2.412844E+03    3.282862E-18
2.412850E+03    3.206318E-18
2.412855E+03    3.568907E-18
2.412860E+03    4.164161E-18
2.412865E+03    4.674271E-18
2.412871E+03    4.831472E-18
2.412876E+03    4.567606E-18
2.412881E+03    4.056569E-18
2.412886E+03    3.620575E-18
2.412892E+03    3.569305E-18
2.412897E+03    4.063993E-18
2.412902E+03    5.053505E-18
2.412907E+03    6.288749E-18
2.412912E+03    7.411018E-18
2.412918E+03    8.093984E-18
2.412923E+03    8.181035E-18
2.412928E+03    7.737443E-18
2.412933E+03    6.987770E-18
2.412939E+03    6.192884E-18
2.412944E+03    5.549413E-18
2.412949E+03    5.153316E-18
2.412954E+03    5.017446E-18
2.412960E+03    5.110604E-18
2.412965E+03    5.386378E-18
2.412970E+03    5.785589E-18
2.412975E+03    6.218783E-18
2.412981E+03    6.553061E-18
2.412986E+03    6.631298E-18
2.412991E+03    6.333226E-18
2.412996E+03    5.651413E-18
2.413001E+03    4.730661E-18
2.413007E+03    3.833629E-18
2.413012E+03    3.246150E-18
2.413017E+03    3.168828E-18
2.413022E+03    3.637229E-18
2.413028E+03    4.492975E-18
2.413033E+03    5.420852E-18
2.413038E+03    6.059858E-18
2.413043E+03    6.162424E-18
2.413049E+03    5.719929E-18
2.413054E+03    4.966703E-18
2.413059E+03    4.258000E-18
2.413064E+03    3.906692E-18
2.413069E+03    4.063896E-18
2.413075E+03    4.675384E-18
2.413080E+03    5.510799E-18
2.413085E+03    6.255734E-18
2.413090E+03    6.642321E-18
2.413096E+03    6.563258E-18
2.413101E+03    6.104204E-18
2.413106E+03    5.477628E-18
2.413111E+03    4.908734E-18
2.413117E+03    4.543739E-18
2.413122E+03    4.416560E-18
2.413127E+03    4.471792E-18
2.413132E+03    4.620032E-18
2.413137E+03    4.794128E-18
2.413143E+03    4.977394E-18
2.413148E+03    5.191322E-18
2.413153E+03    5.453816E-18
2.413158E+03    5.736658E-18
2.413164E+03    5.950468E-18
2.413169E+03    5.971814E-18
2.413174E+03    5.704391E-18
2.413179E+03    5.142354E-18
2.413185E+03    4.396250E-18
2.413190E+03    3.662131E-18
2.413195E+03    3.149979E-18
2.413200E+03    3.006307E-18
2.413206E+03    3.260304E-18
2.413211E+03    3.808099E-18
2.413216E+03    4.440940E-18
2.413221E+03    4.916691E-18
