Sulfuric Acid (H2SO4) dissociation cross-sections Based on Andrew Lincowski file
Air:
Temp:           300K
Angstroms       XS
1.176500E+03    7.316500E-18
1.177900E+03    8.993400E-18
1.179200E+03    1.019200E-17
1.180600E+03    1.197600E-17
1.182000E+03    1.378900E-17
1.183400E+03    1.613800E-17
1.184800E+03    1.868900E-17
1.186200E+03    2.083300E-17
1.187600E+03    2.418100E-17
1.189100E+03    2.777900E-17
1.190500E+03    3.154100E-17
1.191900E+03    3.555000E-17
1.193300E+03    3.820400E-17
1.194700E+03    4.220200E-17
1.196200E+03    4.619600E-17
1.197600E+03    4.945300E-17
1.199000E+03    5.273400E-17
1.200500E+03    5.706500E-17
1.201900E+03    6.175700E-17
1.203400E+03    6.366500E-17
1.204800E+03    6.558000E-17
1.206300E+03    6.685400E-17
1.207700E+03    6.839700E-17
1.209200E+03    6.967700E-17
1.210700E+03    7.062100E-17
1.212100E+03    6.987100E-17
1.213600E+03    6.860400E-17
1.215100E+03    6.718600E-17
1.216500E+03    6.531200E-17
1.218000E+03    6.344400E-17
1.219500E+03    6.143400E-17
1.221000E+03    5.862200E-17
1.222500E+03    5.552400E-17
1.224000E+03    5.242400E-17
1.225500E+03    4.921000E-17
1.227000E+03    4.602000E-17
1.228500E+03    4.280400E-17
1.230000E+03    3.961500E-17
1.231500E+03    3.656300E-17
1.233000E+03    3.379100E-17
1.234600E+03    3.099300E-17
1.236100E+03    2.822300E-17
1.237600E+03    2.570000E-17
1.239200E+03    2.382000E-17
1.240700E+03    2.196700E-17
1.242200E+03    1.972800E-17
1.243800E+03    1.817000E-17
1.245300E+03    1.682400E-17
1.246900E+03    1.559500E-17
1.248400E+03    1.441700E-17
1.250000E+03    1.367700E-17
1.251600E+03    1.308700E-17
1.253100E+03    1.249900E-17
1.254700E+03    1.190800E-17
1.256300E+03    1.125100E-17
1.257900E+03    1.080100E-17
1.259400E+03    1.035000E-17
1.261000E+03    9.901300E-18
1.262600E+03    9.450000E-18
1.264200E+03    8.849800E-18
1.265800E+03    8.401000E-18
1.267400E+03    7.943800E-18
1.269000E+03    7.478000E-18
1.270600E+03    7.008600E-18
1.272300E+03    6.385000E-18
1.273900E+03    5.919300E-18
1.275500E+03    5.455100E-18
1.277100E+03    4.957100E-18
1.278800E+03    4.610200E-18
1.280400E+03    4.260300E-18
1.282100E+03    3.913600E-18
1.283700E+03    3.576600E-18
1.285300E+03    3.242300E-18
1.287000E+03    3.011800E-18
1.288700E+03    2.799800E-18
1.290300E+03    2.584700E-18
1.292000E+03    2.427100E-18
1.293700E+03    2.268400E-18
1.295300E+03    2.084400E-18
1.297000E+03    2.005200E-18
1.298700E+03    1.925700E-18
1.300400E+03    1.848800E-18
1.302100E+03    1.805900E-18
1.303800E+03    1.773800E-18
1.305500E+03    1.741500E-18
1.307200E+03    1.702000E-18
1.308900E+03    1.694600E-18
1.310600E+03    1.694600E-18
1.312300E+03    1.694600E-18
1.314100E+03    1.694600E-18
1.315800E+03    1.694600E-18
1.317500E+03    1.694600E-18
1.319300E+03    1.694600E-18
1.321000E+03    1.694600E-18
1.322800E+03    1.694600E-18
1.324500E+03    1.694600E-18
1.326300E+03    1.692300E-18
1.328000E+03    1.688000E-18
1.329800E+03    1.684900E-18
1.331600E+03    1.681700E-18
1.333300E+03    1.677500E-18
1.335100E+03    1.673300E-18
1.336900E+03    1.670200E-18
1.338700E+03    1.667000E-18
1.340500E+03    1.662800E-18
1.342300E+03    1.658600E-18
1.344100E+03    1.654300E-18
1.345900E+03    1.650300E-18
1.347700E+03    1.645900E-18
1.349500E+03    1.640100E-18
1.351400E+03    1.634300E-18
1.353200E+03    1.628400E-18
1.355000E+03    1.622600E-18
1.356900E+03    1.618200E-18
1.358700E+03    1.613800E-18
1.360500E+03    1.607200E-18
1.362400E+03    1.600500E-18
1.364300E+03    1.593800E-18
1.366100E+03    1.587200E-18
1.368000E+03    1.580500E-18
1.369900E+03    1.575500E-18
1.371700E+03    1.570400E-18
1.373600E+03    1.563800E-18
1.375500E+03    1.557100E-18
1.377400E+03    1.550400E-18
1.379300E+03    1.543700E-18
1.381200E+03    1.537800E-18
1.383100E+03    1.536900E-18
1.385000E+03    1.536900E-18
1.387000E+03    1.536900E-18
1.388900E+03    1.536900E-18
1.390800E+03    1.536900E-18
1.392800E+03    1.536900E-18
1.394700E+03    1.536900E-18
1.396600E+03    1.536900E-18
1.398600E+03    1.537200E-18
1.400600E+03    1.540600E-18
1.402500E+03    1.544600E-18
1.404500E+03    1.548600E-18
1.406500E+03    1.552600E-18
1.408500E+03    1.556600E-18
1.410400E+03    1.560700E-18
1.412400E+03    1.564700E-18
1.414400E+03    1.568700E-18
1.416400E+03    1.572700E-18
1.418400E+03    1.574900E-18
1.420500E+03    1.574900E-18
1.422500E+03    1.574900E-18
1.424500E+03    1.574900E-18
1.426500E+03    1.574900E-18
1.428600E+03    1.574900E-18
1.430600E+03    1.574900E-18
1.432700E+03    1.574900E-18
1.434700E+03    1.574900E-18
1.436800E+03    1.574900E-18
1.438800E+03    1.574900E-18
1.440900E+03    1.574900E-18
1.443000E+03    1.574900E-18
1.445100E+03    1.574900E-18
1.447200E+03    1.574900E-18
1.449300E+03    1.574900E-18
1.451400E+03    1.574900E-18
1.453500E+03    1.574900E-18
1.455600E+03    1.574900E-18
1.457700E+03    1.573900E-18
1.459900E+03    1.564400E-18
1.462000E+03    1.554300E-18
1.464100E+03    1.544200E-18
1.466300E+03    1.534100E-18
1.468400E+03    1.524000E-18
1.470600E+03    1.511400E-18
1.472800E+03    1.498800E-18
1.474900E+03    1.488700E-18
1.477100E+03    1.478700E-18
1.479300E+03    1.468600E-18
1.481500E+03    1.455200E-18
1.483700E+03    1.434700E-18
1.485900E+03    1.414200E-18
1.488100E+03    1.397800E-18
1.490300E+03    1.381300E-18
1.492500E+03    1.360800E-18
1.494800E+03    1.340300E-18
1.497000E+03    1.323800E-18
1.499300E+03    1.307400E-18
1.501500E+03    1.286800E-18
1.503800E+03    1.266000E-18
1.506000E+03    1.245800E-18
1.508300E+03    1.224600E-18
1.510600E+03    1.198000E-18
1.512900E+03    1.171600E-18
1.515200E+03    1.150400E-18
1.517500E+03    1.123900E-18
1.519800E+03    1.097400E-18
1.522100E+03    1.076200E-18
1.524400E+03    1.052800E-18
1.526700E+03    1.020700E-18
1.529100E+03    9.886300E-19
1.531400E+03    9.629700E-19
1.533700E+03    9.321600E-19
1.536100E+03    9.034200E-19
1.538500E+03    8.746400E-19
1.540800E+03    8.459200E-19
1.543200E+03    8.229200E-19
1.545600E+03    7.941300E-19
1.548000E+03    7.654200E-19
1.550400E+03    7.394300E-19
1.552800E+03    7.146300E-19
1.555200E+03    6.947700E-19
1.557600E+03    6.699200E-19
1.560100E+03    6.451300E-19
1.562500E+03    6.202800E-19
1.564900E+03    5.954900E-19
1.567400E+03    5.706300E-19
1.569900E+03    5.458400E-19
1.572300E+03    5.209800E-19
1.574800E+03    4.962000E-19
1.577300E+03    4.727600E-19
1.579800E+03    4.530700E-19
1.582300E+03    4.337000E-19
1.584800E+03    4.143900E-19
1.587300E+03    3.950100E-19
1.589800E+03    3.757000E-19
1.592400E+03    3.563300E-19
1.594900E+03    3.370200E-19
1.597400E+03    3.201000E-19
1.600000E+03    3.046000E-19
1.602600E+03    2.890400E-19
1.605100E+03    2.735400E-19
1.607700E+03    2.592600E-19
1.610300E+03    2.440300E-19
1.612900E+03    2.313600E-19
1.615500E+03    2.186500E-19
1.618100E+03    2.059800E-19
1.620700E+03    1.935500E-19
1.623400E+03    1.807300E-19
1.626000E+03    1.703700E-19
1.628700E+03    1.599600E-19
1.631300E+03    1.474900E-19
1.634000E+03    1.381000E-19
1.636700E+03    1.307500E-19
1.639300E+03    1.219400E-19
1.642000E+03    1.146200E-19
1.644700E+03    1.072700E-19
1.647400E+03    9.862700E-20
1.650200E+03    9.169900E-20
1.652900E+03    8.631200E-20
1.655600E+03    8.090400E-20
1.658400E+03    7.442700E-20
1.661100E+03    6.828800E-20
1.663900E+03    6.401300E-20
1.666700E+03    5.978900E-20
1.669400E+03    5.473000E-20
1.672200E+03    4.967100E-20
1.675000E+03    4.534600E-20
1.677900E+03    4.254500E-20
1.680700E+03    3.973200E-20
1.683500E+03    3.636300E-20
1.686300E+03    3.299400E-20
1.689200E+03    3.030400E-20
1.692000E+03    2.805400E-20
1.694900E+03    2.580400E-20
1.697800E+03    2.393400E-20
1.700700E+03    2.205400E-20
1.703600E+03    1.990800E-20
1.706500E+03    1.831700E-20
1.709400E+03    1.679500E-20
1.712300E+03    1.527200E-20
1.715300E+03    1.375000E-20
1.718200E+03    1.244100E-20
1.721200E+03    1.145500E-20
1.724100E+03    1.046900E-20
1.727100E+03    9.483500E-21
1.730100E+03    8.497700E-21
1.733100E+03    7.551700E-21
1.736100E+03    6.889700E-21
1.739100E+03    6.272200E-21
1.742200E+03    5.654600E-21
1.745200E+03    5.048800E-21
1.748300E+03    4.576000E-21
1.751300E+03    4.140100E-21
1.754400E+03    3.704200E-21
1.757500E+03    3.326500E-21
1.760600E+03    3.044500E-21
1.763700E+03    2.714500E-21
1.766800E+03    2.398200E-21
1.769900E+03    2.163500E-21
1.773000E+03    1.931300E-21
1.776200E+03    1.699000E-21
1.779400E+03    1.516800E-21
1.782500E+03    1.365300E-21
1.785700E+03    1.187900E-21
1.788900E+03    1.029600E-21
1.792100E+03    9.306300E-22
1.795300E+03    8.316200E-22
1.798600E+03    7.375800E-22
1.801800E+03    6.653300E-22
1.805100E+03    6.032600E-22
1.808300E+03    5.411700E-22
1.811600E+03    4.768600E-22
1.814900E+03    4.241300E-22
1.818200E+03    3.788900E-22
1.821500E+03    3.276500E-22
1.824800E+03    2.836500E-22
1.828200E+03    2.467200E-22
1.831500E+03    2.107700E-22
1.834900E+03    1.877600E-22
1.838200E+03    1.684800E-22
1.841600E+03    1.465500E-22
1.845000E+03    1.298700E-22
1.848400E+03    1.144600E-22
1.851900E+03    9.915600E-23
1.855300E+03    8.818800E-23
1.858700E+03    7.795800E-23
1.862200E+03    6.779000E-23
1.865700E+03    5.823100E-23
1.869200E+03    5.148200E-23
1.872700E+03    4.512900E-23
1.876200E+03    3.881600E-23
1.879700E+03    3.392400E-23
1.883200E+03    2.924700E-23
1.886800E+03    2.516900E-23
1.890400E+03    2.165100E-23
1.893900E+03    1.914000E-23
1.897500E+03    1.665300E-23
1.901100E+03    1.393000E-23
1.904800E+03    1.215900E-23
1.908400E+03    1.050000E-23
1.912000E+03    8.963000E-24
1.915700E+03    7.841800E-24
1.919400E+03    6.593800E-24
1.923100E+03    5.383100E-24
1.926800E+03    4.700200E-24
1.930500E+03    4.125000E-24
1.934200E+03    3.469400E-24
1.938000E+03    2.970000E-24
1.941700E+03    2.592600E-24
1.945500E+03    2.162500E-24
1.949300E+03    1.838200E-24
1.953100E+03    1.576400E-24
1.956900E+03    1.325700E-24
1.960800E+03    1.157500E-24
1.964600E+03    9.994000E-25
1.968500E+03    8.575700E-25
1.972400E+03    7.282700E-25
1.976300E+03    6.031200E-25
1.980200E+03    4.919700E-25
1.984100E+03    3.942400E-25
1.988100E+03    3.385200E-25
1.992000E+03    2.858300E-25
1.996000E+03    2.389900E-25
2.000000E+03    2.036900E-25
2.004000E+03    1.718300E-25
2.008000E+03    1.418600E-25
2.012100E+03    1.203300E-25
2.016100E+03    9.976100E-26
2.020200E+03    8.345900E-26
2.024300E+03    7.023100E-26
2.028400E+03    5.779500E-26
2.032500E+03    4.890700E-26
2.036700E+03    3.945200E-26
2.040800E+03    3.237200E-26
2.045000E+03    2.695400E-26
2.049200E+03    2.221600E-26
2.053400E+03    1.874200E-26
2.057600E+03    1.501700E-26
2.061900E+03    1.234700E-26
2.066100E+03    1.016000E-26
2.070400E+03    8.441000E-27
2.074700E+03    6.879500E-27
2.079000E+03    5.507500E-27
2.083300E+03    4.630100E-27
2.087700E+03    3.690400E-27
2.092100E+03    3.021900E-27
2.096400E+03    2.413000E-27
2.100800E+03    1.962800E-27
2.105300E+03    1.621100E-27
2.109700E+03    1.296100E-27
2.114200E+03    1.056000E-27
2.118600E+03    8.380500E-28
2.123100E+03    6.843700E-28
2.127700E+03    5.418000E-28
2.132200E+03    4.308000E-28
2.136800E+03    3.407100E-28
2.141300E+03    2.768600E-28
2.145900E+03    2.203000E-28
2.150500E+03    1.771700E-28
2.155200E+03    1.383800E-28
2.159800E+03    1.106700E-28
2.164500E+03    8.921800E-29
2.169200E+03    6.900000E-29
2.173900E+03    5.593900E-29
2.178600E+03    4.412700E-29
2.183400E+03    3.501500E-29
2.188200E+03    2.699100E-29
2.193000E+03    2.146800E-29
2.197800E+03    1.697200E-29
2.202600E+03    1.391900E-29
2.207500E+03    1.083700E-29
2.212400E+03    8.723000E-30
2.217300E+03    6.869800E-30
2.222200E+03    5.601200E-30
2.227200E+03    4.490500E-30
2.232100E+03    3.732000E-30
2.237100E+03    3.068700E-30
2.242200E+03    2.616600E-30
2.247200E+03    2.221800E-30
2.252300E+03    1.953300E-30
2.257300E+03    1.719200E-30
2.262400E+03    1.560300E-30
2.267600E+03    1.421900E-30
2.272700E+03    1.319500E-30
2.277900E+03    1.233500E-30
2.283100E+03    1.181500E-30
2.288300E+03    1.135900E-30
2.293600E+03    1.102500E-30
2.298900E+03    1.074800E-30
2.304100E+03    1.057700E-30
2.309500E+03    0.000000E+00
2.314800E+03    0.000000E+00
2.320200E+03    0.000000E+00
2.325600E+03    0.000000E+00
2.331000E+03    0.000000E+00
2.336400E+03    0.000000E+00
2.341900E+03    0.000000E+00
2.347400E+03    0.000000E+00
2.352900E+03    0.000000E+00
2.358500E+03    0.000000E+00
2.364100E+03    0.000000E+00
2.369700E+03    0.000000E+00
2.375300E+03    0.000000E+00
2.381000E+03    0.000000E+00
2.386600E+03    0.000000E+00
2.392300E+03    0.000000E+00
2.398100E+03    0.000000E+00
2.403800E+03    0.000000E+00
2.409600E+03    0.000000E+00
2.415500E+03    0.000000E+00
2.421300E+03    0.000000E+00
2.427200E+03    0.000000E+00
2.433100E+03    0.000000E+00
2.439000E+03    0.000000E+00
2.445000E+03    0.000000E+00
2.451000E+03    0.000000E+00
2.457000E+03    0.000000E+00
2.463100E+03    0.000000E+00
2.469100E+03    0.000000E+00
2.475200E+03    0.000000E+00
2.481400E+03    0.000000E+00
2.487600E+03    0.000000E+00
2.493800E+03    0.000000E+00
2.500000E+03    0.000000E+00
2.506300E+03    0.000000E+00
2.512600E+03    0.000000E+00
2.518900E+03    0.000000E+00
2.525300E+03    0.000000E+00
2.531600E+03    0.000000E+00
2.538100E+03    0.000000E+00
2.544500E+03    0.000000E+00
2.551000E+03    0.000000E+00
2.557500E+03    0.000000E+00
2.564100E+03    0.000000E+00
2.570700E+03    0.000000E+00
2.577300E+03    0.000000E+00
2.584000E+03    0.000000E+00
2.590700E+03    0.000000E+00
2.597400E+03    0.000000E+00
2.604200E+03    0.000000E+00
2.611000E+03    0.000000E+00
2.617800E+03    0.000000E+00
2.624700E+03    0.000000E+00
2.631600E+03    0.000000E+00
2.638500E+03    0.000000E+00
2.645500E+03    0.000000E+00
2.652500E+03    0.000000E+00
2.659600E+03    0.000000E+00
2.666700E+03    0.000000E+00
2.673800E+03    0.000000E+00
2.681000E+03    0.000000E+00
2.688200E+03    0.000000E+00
2.695400E+03    0.000000E+00
2.702700E+03    0.000000E+00
2.710000E+03    0.000000E+00
2.717400E+03    0.000000E+00
2.724800E+03    0.000000E+00
2.732200E+03    0.000000E+00
2.739700E+03    0.000000E+00
2.747300E+03    0.000000E+00
2.754800E+03    0.000000E+00
2.762400E+03    0.000000E+00
2.770100E+03    0.000000E+00
2.777800E+03    0.000000E+00
2.785500E+03    0.000000E+00
2.793300E+03    0.000000E+00
2.801100E+03    0.000000E+00
2.809000E+03    0.000000E+00
2.816900E+03    0.000000E+00
2.824900E+03    0.000000E+00
2.832900E+03    0.000000E+00
2.840900E+03    0.000000E+00
2.849000E+03    0.000000E+00
2.857100E+03    0.000000E+00
2.865300E+03    0.000000E+00
2.873600E+03    0.000000E+00
2.881800E+03    0.000000E+00
2.890200E+03    0.000000E+00
2.898600E+03    0.000000E+00
2.907000E+03    0.000000E+00
2.915500E+03    0.000000E+00
2.924000E+03    0.000000E+00
2.932600E+03    0.000000E+00
2.941200E+03    0.000000E+00
2.949900E+03    0.000000E+00
2.958600E+03    0.000000E+00
2.967400E+03    0.000000E+00
2.976200E+03    0.000000E+00
2.985100E+03    0.000000E+00
2.994000E+03    0.000000E+00
3.003000E+03    0.000000E+00
3.012000E+03    0.000000E+00
3.021100E+03    0.000000E+00
3.030300E+03    0.000000E+00
3.039500E+03    0.000000E+00
3.048800E+03    0.000000E+00
3.058100E+03    0.000000E+00
3.067500E+03    0.000000E+00
3.076900E+03    0.000000E+00
3.086400E+03    0.000000E+00
3.096000E+03    0.000000E+00
3.105600E+03    0.000000E+00
3.115300E+03    0.000000E+00
3.125000E+03    0.000000E+00
3.134800E+03    0.000000E+00
3.144700E+03    0.000000E+00
3.154600E+03    0.000000E+00
3.164600E+03    0.000000E+00
3.174600E+03    0.000000E+00
3.184700E+03    0.000000E+00
3.194900E+03    0.000000E+00
3.205100E+03    0.000000E+00
3.215400E+03    0.000000E+00
3.225800E+03    0.000000E+00
3.236200E+03    0.000000E+00
3.246800E+03    0.000000E+00
3.257300E+03    0.000000E+00
3.268000E+03    0.000000E+00
3.278700E+03    0.000000E+00
3.289500E+03    0.000000E+00
3.300300E+03    0.000000E+00
3.311300E+03    0.000000E+00
3.322300E+03    0.000000E+00
3.333300E+03    0.000000E+00
3.344500E+03    0.000000E+00
3.355700E+03    0.000000E+00
3.367000E+03    0.000000E+00
3.378400E+03    0.000000E+00
3.389800E+03    0.000000E+00
3.401400E+03    0.000000E+00
3.413000E+03    0.000000E+00
3.424700E+03    0.000000E+00
3.436400E+03    0.000000E+00
3.448300E+03    0.000000E+00
3.460200E+03    0.000000E+00
3.472200E+03    0.000000E+00
3.484300E+03    0.000000E+00
3.496500E+03    0.000000E+00
3.508800E+03    0.000000E+00
3.521100E+03    0.000000E+00
3.533600E+03    0.000000E+00
3.546100E+03    0.000000E+00
3.558700E+03    0.000000E+00
3.571400E+03    0.000000E+00
3.584200E+03    0.000000E+00
3.597100E+03    0.000000E+00
3.610100E+03    0.000000E+00
3.623200E+03    0.000000E+00
3.636400E+03    0.000000E+00
3.649600E+03    0.000000E+00
3.663000E+03    0.000000E+00
3.676500E+03    0.000000E+00
3.690000E+03    0.000000E+00
3.703700E+03    0.000000E+00
3.717500E+03    0.000000E+00
3.731300E+03    0.000000E+00
3.745300E+03    0.000000E+00
3.759400E+03    0.000000E+00
3.773600E+03    0.000000E+00
3.787900E+03    0.000000E+00
3.802300E+03    0.000000E+00
3.816800E+03    0.000000E+00
3.831400E+03    0.000000E+00
3.846200E+03    0.000000E+00
3.861000E+03    0.000000E+00
3.876000E+03    0.000000E+00
3.891100E+03    0.000000E+00
3.906200E+03    0.000000E+00
3.921600E+03    0.000000E+00
3.937000E+03    0.000000E+00
3.952600E+03    0.000000E+00
3.968300E+03    0.000000E+00
3.984100E+03    0.000000E+00
4.000000E+03    0.000000E+00
4.016100E+03    0.000000E+00
4.032300E+03    0.000000E+00
4.048600E+03    0.000000E+00
4.065000E+03    0.000000E+00
4.081600E+03    0.000000E+00
4.098400E+03    0.000000E+00
4.115200E+03    0.000000E+00
4.132200E+03    0.000000E+00
4.149400E+03    0.000000E+00
4.166700E+03    0.000000E+00
4.184100E+03    0.000000E+00
4.201700E+03    0.000000E+00
4.219400E+03    0.000000E+00
4.237300E+03    0.000000E+00
4.255300E+03    0.000000E+00
4.273500E+03    0.000000E+00
4.291800E+03    0.000000E+00
4.310300E+03    0.000000E+00
4.329000E+03    0.000000E+00
4.347800E+03    0.000000E+00
4.366800E+03    0.000000E+00
4.386000E+03    0.000000E+00
4.405300E+03    0.000000E+00
4.424800E+03    0.000000E+00
4.444400E+03    0.000000E+00
4.464300E+03    0.000000E+00
4.484300E+03    0.000000E+00
4.504500E+03    0.000000E+00
4.524900E+03    0.000000E+00
4.545500E+03    0.000000E+00
4.566200E+03    0.000000E+00
4.587200E+03    0.000000E+00
4.608300E+03    0.000000E+00
4.629600E+03    0.000000E+00
4.651200E+03    0.000000E+00
4.672900E+03    0.000000E+00
4.694800E+03    0.000000E+00
4.717000E+03    0.000000E+00
4.739300E+03    0.000000E+00
4.761900E+03    0.000000E+00
4.784700E+03    0.000000E+00
4.807700E+03    0.000000E+00
4.830900E+03    0.000000E+00
4.854400E+03    0.000000E+00
4.878000E+03    0.000000E+00
4.902000E+03    0.000000E+00
4.926100E+03    0.000000E+00
4.950500E+03    0.000000E+00
4.975100E+03    0.000000E+00
5.000000E+03    0.000000E+00
5.025100E+03    0.000000E+00
5.050500E+03    0.000000E+00
5.076100E+03    0.000000E+00
5.102000E+03    5.978200E-30
5.128200E+03    1.192000E-25
5.154600E+03    1.192000E-25
5.181300E+03    1.192000E-25
5.208300E+03    8.787500E-26
5.235600E+03    1.322700E-30
5.263200E+03    0.000000E+00
5.291000E+03    0.000000E+00
5.319100E+03    0.000000E+00
5.347600E+03    0.000000E+00
5.376300E+03    0.000000E+00
5.405400E+03    0.000000E+00
5.434800E+03    0.000000E+00
5.464500E+03    0.000000E+00
5.494500E+03    0.000000E+00
5.524900E+03    0.000000E+00
5.555600E+03    0.000000E+00
5.586600E+03    0.000000E+00
5.618000E+03    3.299000E-27
5.649700E+03    2.330100E-26
5.681800E+03    2.330100E-26
5.714300E+03    3.706100E-29
5.747100E+03    0.000000E+00
5.780300E+03    0.000000E+00
5.814000E+03    0.000000E+00
5.848000E+03    0.000000E+00
5.882400E+03    0.000000E+00
5.917200E+03    0.000000E+00
5.952400E+03    0.000000E+00
5.988000E+03    0.000000E+00
6.024100E+03    1.240900E-24
