CH3SH_mpi.abs
Air:  
Temp: 
Angstroms       XS
1.925000E+03    2.173000E-18
1.930000E+03    2.086000E-18
1.935000E+03    2.217000E-18
1.940000E+03    2.462000E-18
1.945000E+03    2.693000E-18
1.950000E+03    2.977000E-18
1.955000E+03    3.275000E-18
1.960000E+03    3.539000E-18
1.965000E+03    3.819000E-18
1.970000E+03    4.149000E-18
1.975000E+03    4.528000E-18
1.980000E+03    4.901000E-18
1.985000E+03    5.287000E-18
1.990000E+03    5.668000E-18
1.995000E+03    6.098000E-18
2.000000E+03    6.493000E-18
2.005000E+03    6.858000E-18
2.010000E+03    7.237000E-18
2.015000E+03    7.572000E-18
2.020000E+03    7.886000E-18
2.025000E+03    8.130000E-18
2.030000E+03    8.325000E-18
2.035000E+03    8.455000E-18
2.040000E+03    8.486000E-18
2.045000E+03    8.445000E-18
2.050000E+03    8.329000E-18
2.055000E+03    8.115000E-18
2.060000E+03    7.831000E-18
2.065000E+03    7.481000E-18
2.070000E+03    7.079000E-18
2.075000E+03    6.604000E-18
2.080000E+03    6.115000E-18
2.085000E+03    5.610000E-18
2.090000E+03    5.062000E-18
2.095000E+03    4.554000E-18
2.100000E+03    4.036000E-18
2.105000E+03    3.569000E-18
2.110000E+03    3.097000E-18
2.115000E+03    2.723000E-18
2.120000E+03    2.361000E-18
2.125000E+03    2.045000E-18
2.130000E+03    1.786000E-18
2.135000E+03    1.556000E-18
2.140000E+03    1.377000E-18
2.145000E+03    1.219000E-18
2.150000E+03    1.101000E-18
2.155000E+03    9.964000E-19
2.160000E+03    9.231000E-19
2.165000E+03    8.619000E-19
2.170000E+03    8.115000E-19
2.175000E+03    7.723000E-19
2.180000E+03    7.434000E-19
2.185000E+03    7.185000E-19
2.190000E+03    6.996000E-19
2.195000E+03    6.851000E-19
2.200000E+03    6.745000E-19
2.205000E+03    6.676000E-19
2.210000E+03    6.621000E-19
2.215000E+03    6.590000E-19
2.220000E+03    6.558000E-19
2.225000E+03    6.545000E-19
2.230000E+03    6.560000E-19
2.235000E+03    6.553000E-19
2.240000E+03    6.571000E-19
2.245000E+03    6.606000E-19
2.250000E+03    6.615000E-19
2.255000E+03    6.640000E-19
2.260000E+03    6.650000E-19
2.265000E+03    6.677000E-19
2.270000E+03    6.708000E-19
2.275000E+03    6.726000E-19
2.280000E+03    6.744000E-19
2.285000E+03    6.768000E-19
2.290000E+03    6.753000E-19
2.295000E+03    6.776000E-19
2.300000E+03    6.781000E-19
2.305000E+03    6.789000E-19
2.310000E+03    6.779000E-19
2.315000E+03    6.771000E-19
2.320000E+03    6.752000E-19
2.325000E+03    6.728000E-19
2.330000E+03    6.713000E-19
2.335000E+03    6.687000E-19
2.340000E+03    6.637000E-19
2.345000E+03    6.585000E-19
2.350000E+03    6.529000E-19
2.355000E+03    6.474000E-19
2.360000E+03    6.407000E-19
2.365000E+03    6.345000E-19
2.370000E+03    6.253000E-19
2.375000E+03    6.170000E-19
2.380000E+03    6.090000E-19
2.385000E+03    5.989000E-19
2.390000E+03    5.853000E-19
2.395000E+03    5.740000E-19
2.400000E+03    5.618000E-19
2.405000E+03    5.514000E-19
2.410000E+03    5.409000E-19
2.415000E+03    5.269000E-19
2.420000E+03    5.147000E-19
2.425000E+03    5.018000E-19
2.430000E+03    4.890000E-19
2.435000E+03    4.772000E-19
2.440000E+03    4.621000E-19
2.445000E+03    4.466000E-19
2.450000E+03    4.336000E-19
2.455000E+03    4.186000E-19
2.460000E+03    4.051000E-19
2.465000E+03    3.933000E-19
2.470000E+03    3.751000E-19
2.475000E+03    3.611000E-19
2.480000E+03    3.510000E-19
2.485000E+03    3.386000E-19
2.490000E+03    3.228000E-19
2.495000E+03    3.122000E-19
2.500000E+03    2.984000E-19
2.505000E+03    2.861000E-19
2.510000E+03    2.741000E-19
2.515000E+03    2.621000E-19
2.520000E+03    2.488000E-19
2.525000E+03    2.380500E-19
2.530000E+03    2.253500E-19
2.535000E+03    2.145300E-19
2.540000E+03    2.040000E-19
2.545000E+03    1.928200E-19
2.550000E+03    1.829500E-19
2.555000E+03    1.729500E-19
2.560000E+03    1.631900E-19
2.565000E+03    1.538900E-19
2.570000E+03    1.449800E-19
2.575000E+03    1.364800E-19
2.580000E+03    1.283100E-19
2.585000E+03    1.206600E-19
2.590000E+03    1.125100E-19
2.595000E+03    1.049300E-19
2.600000E+03    9.819000E-20
2.605000E+03    9.181000E-20
2.610000E+03    8.545000E-20
2.615000E+03    7.936000E-20
2.620000E+03    7.393000E-20
2.625000E+03    6.853000E-20
2.630000E+03    6.358000E-20
2.635000E+03    5.872000E-20
2.640000E+03    5.405000E-20
2.645000E+03    5.029000E-20
2.650000E+03    4.645000E-20
2.655000E+03    4.288000E-20
2.660000E+03    3.949000E-20
2.665000E+03    3.630000E-20
2.670000E+03    3.306000E-20
2.675000E+03    2.992000E-20
2.680000E+03    2.776000E-20
2.685000E+03    2.510000E-20
2.690000E+03    2.298000E-20
2.695000E+03    2.126000E-20
2.700000E+03    1.916000E-20
2.705000E+03    1.749000E-20
2.710000E+03    1.592000E-20
2.715000E+03    1.427000E-20
2.720000E+03    1.296000E-20
2.725000E+03    1.175000E-20
2.730000E+03    1.079000E-20
2.735000E+03    9.770000E-21
2.740000E+03    8.850000E-21
2.745000E+03    7.900000E-21
2.750000E+03    7.150000E-21
2.755000E+03    6.470000E-21
2.760000E+03    5.780000E-21
2.765000E+03    5.220000E-21
2.770000E+03    4.710000E-21
2.775000E+03    4.260000E-21
2.780000E+03    3.810000E-21
2.785000E+03    3.470000E-21
2.790000E+03    3.110000E-21
2.795000E+03    2.790000E-21
2.800000E+03    2.500000E-21
2.805000E+03    2.210000E-21
2.810000E+03    1.990000E-21
2.815000E+03    1.810000E-21
2.820000E+03    1.640000E-21
2.825000E+03    1.490000E-21
2.830000E+03    1.350000E-21
2.835000E+03    1.220000E-21
2.840000E+03    1.100000E-21
2.845000E+03    9.600000E-22
2.850000E+03    8.700000E-22
2.855000E+03    8.000000E-22
2.860000E+03    7.200000E-22
2.865000E+03    6.500000E-22
2.870000E+03    5.800000E-22
2.875000E+03    5.400000E-22
2.880000E+03    4.900000E-22
2.885000E+03    4.300000E-22
2.890000E+03    4.000000E-22
2.895000E+03    3.700000E-22
2.900000E+03    3.300000E-22
2.905000E+03    3.100000E-22
2.910000E+03    2.800000E-22
2.915000E+03    2.500000E-22
2.920000E+03    2.300000E-22
2.925000E+03    2.170000E-22
2.930000E+03    1.970000E-22
2.935000E+03    1.820000E-22
2.940000E+03    1.680000E-22
2.945000E+03    1.560000E-22
2.950000E+03    1.450000E-22
2.955000E+03    1.340000E-22
2.960000E+03    1.250000E-22
2.965000E+03    1.180000E-22
2.970000E+03    1.090000E-22
2.975000E+03    1.000000E-22
2.980000E+03    9.400000E-23
2.985000E+03    8.800000E-23
2.990000E+03    8.200000E-23
2.995000E+03    7.600000E-23
3.000000E+03    7.100000E-23
3.005000E+03    6.700000E-23
3.010000E+03    6.200000E-23
3.015000E+03    5.900000E-23
3.020000E+03    5.400000E-23
3.025000E+03    5.100000E-23
3.030000E+03    4.700000E-23
3.035000E+03    4.400000E-23
3.040000E+03    4.200000E-23
3.045000E+03    3.900000E-23
3.050000E+03    3.700000E-23
3.055000E+03    3.500000E-23
3.060000E+03    3.300000E-23
3.065000E+03    3.000000E-23
3.070000E+03    2.800000E-23
3.075000E+03    2.700000E-23
3.080000E+03    2.500000E-23
3.085000E+03    2.300000E-23
3.090000E+03    2.200000E-23
3.095000E+03    2.000000E-23
