   20.000000000000000        101.72033224975907     
   70.000000000000000        1571.2052308624104     
   130.00000000000000        5648.5029145876952     
   190.00000000000000        12896.011411020385     
   250.00000000000000        23366.173500869096     
   305.00000000000000        34384.129025295297     
   355.00000000000000        47335.276182835732     
   410.00000000000000        65454.299953939255     
   467.50000000000000        83542.076973440679     
   520.00000000000000        100996.77524184974     
   581.00000000000000        123460.80189626693     
   642.00000000000000        129602.68387075450     
   693.50000000000000        135146.37052914951     
   760.00000000000000        158070.86009090490     
   837.50000000000000        183025.98095460213     
   907.50000000000000        202471.66212401941     
   970.00000000000000        218380.23217311411     
   1032.5000000000000        233544.84452212855     
   1086.5000000000000        242339.16707706885     
   1154.0000000000000        258267.32609324070     
   1237.5000000000000        267110.20440937905     
   1312.5000000000000        271619.41770370043     
   1400.0000000000000        276001.77254930639     
   1500.0000000000000        278192.48076611245     
   1600.0000000000000        279879.83394238976     
   1700.0000000000000        280898.27965184447     
   1800.0000000000000        281850.31722238439     
   1900.0000000000000        282802.49982245453     
   2000.0000000000000        283756.36719652393     
   2125.0000000000000        284850.45620801015     
   2298.5000000000000        285221.75725862960     
   2445.5000000000000        285428.54915064678     
   2645.0000000000000        285796.59644687595     
   2941.5000000000000        285874.28937710397     
   3256.0000000000000        285893.91308534698     
   3592.5000000000000        285894.62944712135     
   3895.0000000000000        285894.92601675569     
   4285.0000000000000        285895.55312051886     
   4745.0000000000000        285895.62587098271     
   5160.0000000000000        285895.63052784099     
   5647.5000000000000        285895.63177645433     
   6157.5000000000000        285895.63194108859     
   6690.0000000000000        285895.63195442199     
   7320.0000000000000        285895.63195467502     
   7982.5000000000000        285895.63195473049     
   8582.5000000000000        285895.63195473258     
   9100.0000000000000        285895.63195473276     
   9500.0000000000000        285895.63195473276     
   10025.000000000000        285895.63195473276     
   10810.000000000000        285895.63195473276     
   11545.000000000000        285895.63195473276     
   12330.000000000000        285895.63195473276     
   13045.000000000000        285895.63195473276     
   13885.000000000000        285895.63195473276     
   14735.000000000000        285895.63195473276     
   20.000000000000000        93.233408068099493     
   70.000000000000000        1373.7996234488714     
   130.00000000000000        4836.0163473877710     
   190.00000000000000        10884.193766272543     
   250.00000000000000        19569.140032309897     
   305.00000000000000        28702.555393211318     
   355.00000000000000        39476.074677202851     
   410.00000000000000        54775.283468138608     
   467.50000000000000        70064.954417940709     
   520.00000000000000        84885.302574919566     
   581.00000000000000        104534.01656271929     
   642.00000000000000        110176.74964688823     
   693.50000000000000        115252.29603357791     
   760.00000000000000        136112.34804936458     
   837.50000000000000        158860.56902895164     
   907.50000000000000        176630.84595657617     
   970.00000000000000        191173.12750065752     
   1032.5000000000000        204971.37155549438     
   1086.5000000000000        212882.57365423112     
   1154.0000000000000        226835.80422666806     
   1237.5000000000000        234100.99235058177     
   1312.5000000000000        237486.03555216317     
   1400.0000000000000        240068.97839851267     
   1500.0000000000000        241077.65633594018     
   1600.0000000000000        241862.04350114561     
   1700.0000000000000        242274.53706666053     
   1800.0000000000000        242726.35598095876     
   1900.0000000000000        243263.18877433622     
   2000.0000000000000        243896.53420745610     
   2125.0000000000000        244747.77903452227     
   2298.5000000000000        245053.22348634325     
   2445.5000000000000        245220.97795095443     
   2645.0000000000000        245516.30760684222     
   2941.5000000000000        245569.95168108607     
   3256.0000000000000        245579.38202093326     
   3592.5000000000000        245579.59481966731     
   3895.0000000000000        245579.67214384128     
   4285.0000000000000        245580.08215649024     
   4745.0000000000000        245580.13092598211     
   5160.0000000000000        245580.13290346798     
   5647.5000000000000        245580.13356982690     
   6157.5000000000000        245580.13367016622     
   6690.0000000000000        245580.13367652992     
   7320.0000000000000        245580.13367658024     
   7982.5000000000000        245580.13367660891     
   8582.5000000000000        245580.13367660975     
   9100.0000000000000        245580.13367660984     
   9500.0000000000000        245580.13367660984     
   10025.000000000000        245580.13367660984     
   10810.000000000000        245580.13367660984     
   11545.000000000000        245580.13367660984     
   12330.000000000000        245580.13367660984     
   13045.000000000000        245580.13367660984     
   13885.000000000000        245580.13367660984     
   14735.000000000000        245580.13367660984     
   20.000000000000000        93.018153819984235     
   70.000000000000000        1362.0927012390018     
   130.00000000000000        4784.7122101155119     
   190.00000000000000        10770.615185386923     
   250.00000000000000        19388.291257033845     
   305.00000000000000        28477.341398367644     
   355.00000000000000        39219.270214219730     
   410.00000000000000        54495.861751116157     
   467.50000000000000        69771.390092726302     
   520.00000000000000        84581.590850286957     
   581.00000000000000        104215.33313710884     
   642.00000000000000        109853.66054619664     
   693.50000000000000        114925.20850746507     
   760.00000000000000        135760.44834086631     
   837.50000000000000        158473.07535615205     
   907.50000000000000        176210.31010604015     
   970.00000000000000        190722.56817657509     
   1032.5000000000000        204490.23597680576     
   1086.5000000000000        212384.04138979001     
   1154.0000000000000        226307.22945182474     
   1237.5000000000000        233559.03709328824     
   1312.5000000000000        236938.66305113689     
   1400.0000000000000        239512.78137615355     
   1500.0000000000000        240505.85485527120     
   1600.0000000000000        241280.97979791850     
   1700.0000000000000        241686.32421468821     
   1800.0000000000000        242135.64784414225     
   1900.0000000000000        242671.19123216902     
   2000.0000000000000        243303.12943662266     
   2125.0000000000000        244151.08782412819     
   2298.5000000000000        244454.96919083424     
   2445.5000000000000        244621.73044430476     
   2645.0000000000000        244915.23532836422     
   2941.5000000000000        244968.57740045531     
   3256.0000000000000        244977.97438727567     
   3592.5000000000000        244978.18596630963     
   3895.0000000000000        244978.26286470523     
   4285.0000000000000        244978.66913089526     
   4745.0000000000000        244978.71736588707     
   5160.0000000000000        244978.71932846881     
   5647.5000000000000        244978.71998703218     
   6157.5000000000000        244978.72008590668     
   6690.0000000000000        244978.72009218222     
   7320.0000000000000        244978.72009223219     
   7982.5000000000000        244978.72009226034     
