   20.000000000000000        101.72033224975907     
   70.000000000000000        1571.2052308624104     
   130.00000000000000        5648.5029145877115     
   190.00000000000000        12896.011411020208     
   250.00000000000000        23366.173500869110     
   305.00000000000000        34384.129025294307     
   355.00000000000000        47335.276182832655     
   410.00000000000000        65454.299953937814     
   467.50000000000000        83542.076973436633     
   520.00000000000000        100996.77524184711     
   581.00000000000000        123460.80189626451     
   642.00000000000000        129602.68387075208     
   693.50000000000000        135146.37052914710     
   760.00000000000000        158070.86009090231     
   837.50000000000000        183025.98095459011     
   907.50000000000000        202471.66212404848     
   970.00000000000000        218380.23217309685     
   1032.5000000000000        233544.84452211187     
   1086.5000000000000        242339.16707705893     
   1154.0000000000000        258267.32609323101     
   1237.5000000000000        267110.20440936950     
   1312.5000000000000        271619.41770369088     
   1400.0000000000000        276001.77254929685     
   1500.0000000000000        278192.48076610290     
   1600.0000000000000        279879.83394238021     
   1700.0000000000000        280898.27965183492     
   1800.0000000000000        281850.31722237484     
   1900.0000000000000        282802.49982244498     
   2000.0000000000000        283756.36719651450     
   2125.0000000000000        284850.45620800072     
   2298.5000000000000        285221.75725862017     
   2445.5000000000000        285428.54915063735     
   2645.0000000000000        285796.59644686652     
   2941.5000000000000        285874.28937709454     
   3256.0000000000000        285893.91308533755     
   3592.5000000000000        285894.62944711192     
   3895.0000000000000        285894.92601674626     
   4285.0000000000000        285895.55312050943     
   4745.0000000000000        285895.62587097328     
   5160.0000000000000        285895.63052783156     
   5647.5000000000000        285895.63177644490     
   6157.5000000000000        285895.63194107916     
   6690.0000000000000        285895.63195441256     
   7320.0000000000000        285895.63195466559     
   7982.5000000000000        285895.63195472106     
   8582.5000000000000        285895.63195472315     
   9100.0000000000000        285895.63195472333     
   9500.0000000000000        285895.63195472333     
   10025.000000000000        285895.63195472333     
   10810.000000000000        285895.63195472333     
   11545.000000000000        285895.63195472333     
   12330.000000000000        285895.63195472333     
   13045.000000000000        285895.63195472333     
   13885.000000000000        285895.63195472333     
   14735.000000000000        285895.63195472333     
   20.000000000000000        93.233408114247950     
   70.000000000000000        1373.7996235041833     
   130.00000000000000        4836.0163485761850     
   190.00000000000000        10884.193796246818     
   250.00000000000000        19569.140086200532     
   305.00000000000000        28702.555399218552     
   355.00000000000000        39476.074747736391     
   410.00000000000000        54775.282820947104     
   467.50000000000000        70064.953736107273     
   520.00000000000000        84885.301874700861     
   581.00000000000000        104534.01586257986     
   642.00000000000000        110176.74894676397     
   693.50000000000000        115252.29533346159     
   760.00000000000000        136112.34734112109     
   837.50000000000000        158860.56827411652     
   907.50000000000000        176630.84520935122     
   970.00000000000000        191173.12675062224     
   1032.5000000000000        204971.37080532880     
   1086.5000000000000        212882.57290472699     
   1154.0000000000000        226835.80348769409     
   1237.5000000000000        234100.99161058525     
   1312.5000000000000        237486.03481180672     
   1400.0000000000000        240068.97765868349     
   1500.0000000000000        241077.65559605308     
   1600.0000000000000        241862.04276126757     
   1700.0000000000000        242274.53632679186     
   1800.0000000000000        242726.35524109911     
   1900.0000000000000        243263.18803448425     
   2000.0000000000000        243896.53346761034     
   2125.0000000000000        244747.77829467537     
   2298.5000000000000        245053.22274649580     
   2445.5000000000000        245220.97721110692     
   2645.0000000000000        245516.30686699442     
   2941.5000000000000        245569.95094123823     
   3256.0000000000000        245579.38128108543     
   3592.5000000000000        245579.59407981948     
   3895.0000000000000        245579.67140399344     
   4285.0000000000000        245580.08141664241     
   4745.0000000000000        245580.13018613428     
   5160.0000000000000        245580.13216362015     
   5647.5000000000000        245580.13282997906     
   6157.5000000000000        245580.13293031839     
   6690.0000000000000        245580.13293668209     
   7320.0000000000000        245580.13293673241     
   7982.5000000000000        245580.13293676107     
   8582.5000000000000        245580.13293676192     
   9100.0000000000000        245580.13293676201     
   9500.0000000000000        245580.13293676201     
   10025.000000000000        245580.13293676201     
   10810.000000000000        245580.13293676201     
   11545.000000000000        245580.13293676201     
   12330.000000000000        245580.13293676201     
   13045.000000000000        245580.13293676201     
   13885.000000000000        245580.13293676201     
   14735.000000000000        245580.13293676201     
   20.000000000000000        93.018153938131221     
   70.000000000000000        1362.0927019271455     
   130.00000000000000        4784.7122126078357     
   190.00000000000000        10770.615171525385     
   250.00000000000000        19388.291209261195     
   305.00000000000000        28477.341657114441     
   355.00000000000000        39219.269967633540     
   410.00000000000000        54495.861575955940     
   467.50000000000000        69771.390033209813     
   520.00000000000000        84581.590890643536     
   581.00000000000000        104215.33318547123     
   642.00000000000000        109853.66059834634     
   693.50000000000000        114925.20856678211     
   760.00000000000000        135760.44844381453     
   837.50000000000000        158473.07554599113     
   907.50000000000000        176210.31035419652     
   970.00000000000000        190722.56844575028     
   1032.5000000000000        204490.23626537187     
   1086.5000000000000        212384.04168959212     
   1154.0000000000000        226307.22977604257     
   1237.5000000000000        233559.03742355242     
   1312.5000000000000        236938.66338510011     
   1400.0000000000000        239512.78171200590     
   1500.0000000000000        240505.85519217831     
   1600.0000000000000        241280.98013574281     
   1700.0000000000000        241686.32455310191     
   1800.0000000000000        242135.64818303657     
   1900.0000000000000        242671.19157167803     
   2000.0000000000000        243303.12977699505     
   2125.0000000000000        244151.08816658866     
   2298.5000000000000        244454.96953431505     
   2445.5000000000000        244621.73078841719     
   2645.0000000000000        244915.23567363512     
   2941.5000000000000        244968.57774591737     
   3256.0000000000000        244977.97473275822     
   3592.5000000000000        244978.18631179264     
   3895.0000000000000        244978.26321018842     
   4285.0000000000000        244978.66947638083     
   4745.0000000000000        244978.71771137297     
   5160.0000000000000        244978.71967395474     
   5647.5000000000000        244978.72033251810     
   6157.5000000000000        244978.72043139260     
   6690.0000000000000        244978.72043766815     
   7320.0000000000000        244978.72043771812     
   7982.5000000000000        244978.72043774626     
   8582.5000000000000        244978.72043774711     
   9100.0000000000000        244978.72043774719     
   9500.0000000000000        244978.72043774719     
   10025.000000000000        244978.72043774719     
   10810.000000000000        244978.72043774719     
   11545.000000000000        244978.72043774719     
   12330.000000000000        244978.72043774719     
   13045.000000000000        244978.72043774719     
   13885.000000000000        244978.72043774719     
   14735.000000000000        244978.72043774719     
   20.000000000000000        93.006794118868086     
   70.000000000000000        1361.7899061150270     
   130.00000000000000        4783.4380842935234     
   190.00000000000000        10767.598691751720     
   250.00000000000000        19383.002875789556     
   305.00000000000000        28469.992041804442     
   355.00000000000000        39209.700484571571     
   410.00000000000000        54483.026859578487     
   467.50000000000000        69755.097952953874     
   520.00000000000000        84561.606288005220     
   581.00000000000000        104188.34128676237     
   642.00000000000000        109822.56739580048     
   693.50000000000000        114889.98124843495     
   760.00000000000000        135712.02367391434     
   837.50000000000000        158405.88535130446     
   907.50000000000000        176125.70983473648     
   970.00000000000000        190622.15572571743     
   1032.5000000000000        204373.72230696838     
   1086.5000000000000        212258.36680123513     
   1154.0000000000000        226165.74480004518     
   1237.5000000000000        233410.57403327146     
   1312.5000000000000        236787.51062606566     
   1400.0000000000000        239359.89049200693     
   1500.0000000000000        240352.05900308327     
   1600.0000000000000        241126.42602088331     
   1700.0000000000000        241531.35688419093     
   1800.0000000000000        241980.28920392194     
   1900.0000000000000        242515.32266122731     
   2000.0000000000000        243146.54060232849     
   2125.0000000000000        243992.77085648116     
   2298.5000000000000        244295.82455551057     
   2445.5000000000000        244462.06416322629     
   2645.0000000000000        244754.61163125816     
   2941.5000000000000        244807.79566510342     
   3256.0000000000000        244817.17571973204     
   3592.5000000000000        244817.38690973358     
   3895.0000000000000        244817.46366097694     
   4285.0000000000000        244817.86796616431     
   4745.0000000000000        244817.91592176244     
   5160.0000000000000        244817.91787659068     
   5647.5000000000000        244817.91853108761     
   6157.5000000000000        244817.91862919868     
   6690.0000000000000        244817.91863542830     
   7320.0000000000000        244817.91863547807     
   7982.5000000000000        244817.91863550592     
   8582.5000000000000        244817.91863550674     
   9100.0000000000000        244817.91863550682     
   9500.0000000000000        244817.91863550682     
   10025.000000000000        244817.91863550682     
   10810.000000000000        244817.91863550682     
   11545.000000000000        244817.91863550682     
   12330.000000000000        244817.91863550682     
   13045.000000000000        244817.91863550682     
   13885.000000000000        244817.91863550682     
   14735.000000000000        244817.91863550682     
   20.000000000000000        92.997844486777382     
   70.000000000000000        1361.5472134978841     
   130.00000000000000        4782.4131715842814     
   190.00000000000000        10765.187150497739     
   250.00000000000000        19378.792384610770     
   305.00000000000000        28464.162269108572     
   355.00000000000000        39202.134066120445     
   410.00000000000000        54472.911958701508     
   467.50000000000000        69742.279401227279     
   520.00000000000000        84545.901843982996     
   581.00000000000000        104167.13524466843     
   642.00000000000000        109797.73354660795     
   693.50000000000000        114861.44845647454     
   760.00000000000000        135673.13782136506     
   837.50000000000000        158352.31944185816     
   907.50000000000000        176058.52891307345     
   970.00000000000000        190542.61375954651     
   1032.5000000000000        204281.59454860509     
   1086.5000000000000        212159.07774370979     
   1154.0000000000000        226054.09512428485     
   1237.5000000000000        233293.46775087924     
   1312.5000000000000        236668.29717944059     
   1400.0000000000000        239239.31857132268     
   1500.0000000000000        240230.77916271173     
   1600.0000000000000        241004.55313489135     
   1700.0000000000000        241409.16039441622     
   1800.0000000000000        241857.78694071533     
   1900.0000000000000        242392.42194780189     
   2000.0000000000000        243023.07681332048     
   2125.0000000000000        243867.95707689700     
   2298.5000000000000        244170.36350330058     
   2445.5000000000000        244336.19626007020     
   2645.0000000000000        244627.99706364467     
   2941.5000000000000        244681.05780537013     
   3256.0000000000000        244690.42463490964     
   3592.5000000000000        244690.63552084041     
   3895.0000000000000        244690.71215719995     
   4285.0000000000000        244691.11493514082     
   4745.0000000000000        244691.16267333733     
   5160.0000000000000        244691.16462212024     
   5647.5000000000000        244691.16527345503     
   6157.5000000000000        244691.16537097315     
   6690.0000000000000        244691.16537716708     
   7320.0000000000000        244691.16537721670     
   7982.5000000000000        244691.16537724435     
   8582.5000000000000        244691.16537724517     
   9100.0000000000000        244691.16537724526     
   9500.0000000000000        244691.16537724526     
   10025.000000000000        244691.16537724526     
   10810.000000000000        244691.16537724526     
   11545.000000000000        244691.16537724526     
   12330.000000000000        244691.16537724526     
   13045.000000000000        244691.16537724526     
   13885.000000000000        244691.16537724526     
   14735.000000000000        244691.16537724526     
   20.000000000000000        93.024773583219286     
   70.000000000000000        1363.3019578280050     
   130.00000000000000        4790.1230399125598     
   190.00000000000000        10781.962584133194     
   250.00000000000000        19404.833111345230     
   305.00000000000000        28495.600830758769     
   355.00000000000000        39236.601311229460     
   410.00000000000000        54508.002300959837     
   467.50000000000000        69776.466796259745     
   520.00000000000000        84578.320177875503     
   581.00000000000000        104195.38813695892     
   642.00000000000000        109823.40988577303     
   693.50000000000000        114884.40540353223     
   760.00000000000000        135687.65880388941     
   837.50000000000000        158355.38586930899     
   907.50000000000000        176050.97830523952     
   970.00000000000000        190525.40637052295     
   1032.5000000000000        204254.56024527014     
   1086.5000000000000        212126.44374320126     
   1154.0000000000000        226011.83181943069     
   1237.5000000000000        233247.04828312702     
   1312.5000000000000        236620.46472972629     
   1400.0000000000000        239191.31039189207     
   1500.0000000000000        240184.48331532246     
   1600.0000000000000        240959.11004991055     
   1700.0000000000000        241364.50346962013     
   1800.0000000000000        241813.17250015950     
   1900.0000000000000        242347.54801290494     
   2000.0000000000000        242977.76910345131     
   2125.0000000000000        243821.59782867035     
   2298.5000000000000        244123.50131631290     
   2445.5000000000000        244289.02065054252     
   2645.0000000000000        244580.24058353194     
   2941.5000000000000        244633.20561952636     
